# Pbox  37000.00   4 4095  0.0     0    1.0000 0.06563     4
# VJ3.0  pw (us)  pwr  pwrf  dres  dmf  dcyc   B1max (kHz)  Stype
# ---------------------------------------------------------------
# Pxsim 0.0370000 63.2590 1.000 300.0 0.0000000 0.0000000 0.00
# data: pw (s) B1max (Hz) status sw (Hz) T1 (s)   T2 (s) RDC (Hz)
# ---------------------------------------------------------------
# Pbox.inp data :
# ~~~~~~~~~~~~~~~~~~~~~~~~~~~Waves~~~~~~~~~~~~~~~~~~~~~~~~~~~~~~~~~~
#   shape   bw(/pw)   ofs  st  ph  fla  trev  d1  d2   d0   wrp  php
# ~~~~~~~~~~~~~~~~~~~~~~~~~~~~~~~~~~~~~~~~~~~~~~~~~~~~~~~~~~~~~~~~~~
# { rsnob 50.0 0.0 1 0.000 180.0 }
#
# type      = r          mod       = n          dres      = n         
# steps     = n          stepsize  = 10.00      attn      = i         
# refofs    = n          wrap      = n          sfrq      = n         
# sucyc     = d          reps      = 4.000000   header    = y         
# bscor     = n          pad1      = n          pad2      = n         
# bsim      = n          T1        = n          T2        = n         
# rdc       = n          dcyc      = n          sw        = n         
#
# RF Calibration Data :  ref_pwr   = 58         ref_pw90  = 7.60
# ~~~~~~~~~~~~~~~~~~~~~
###
# ------------------- Shape data ------------------
# pwtot      = 0.0370000 (total pw, s)
# power      = 4 (power level, dB)
# pwrf       = 4095 (fine power)
# B1max      = 0.0656 (B1max, kHz)
# B1rms      = 0.0279 (B1[RMS], kHz)
# nptot      = 3700 (total number of steps)
# stepsize   = 10.00 (length of a single step, us)
# maxamp     = 987.0 (max amplitude)
# ------------------------------------------------- 
#      phase      amplitude   length     gate 
# ------------------------------------------------- 
        0.00      1023.00      0.0        0
     180.000       49.786      1.0        1
     180.000       49.787      1.0        1
     180.000       49.789      1.0        1
     180.000       49.792      1.0        1
     180.000       49.797      1.0        1
     180.000       49.804      1.0        1
     180.000       49.812      1.0        1
     180.000       49.821      1.0        1
     180.000       49.832      1.0        1
     180.000       49.844      1.0        1
     180.000       49.858      1.0        1
     180.000       49.873      1.0        1
     180.000       49.889      1.0        1
     180.000       49.907      1.0        1
     180.000       49.926      1.0        1
     180.000       49.947      1.0        1
     180.000       49.969      1.0        1
     180.000       49.993      1.0        1
     180.000       50.018      1.0        1
     180.000       50.044      1.0        1
     180.000       50.072      1.0        1
     180.000       50.101      1.0        1
     180.000       50.132      1.0        1
     180.000       50.164      1.0        1
     180.000       50.197      1.0        1
     180.000       50.232      1.0        1
     180.000       50.269      1.0        1
     180.000       50.306      1.0        1
     180.000       50.346      1.0        1
     180.000       50.386      1.0        1
     180.000       50.428      1.0        1
     180.000       50.471      1.0        1
     180.000       50.516      1.0        1
     180.000       50.562      1.0        1
     180.000       50.610      1.0        1
     180.000       50.659      1.0        1
     180.000       50.709      1.0        1
     180.000       50.761      1.0        1
     180.000       50.815      1.0        1
     180.000       50.869      1.0        1
     180.000       50.925      1.0        1
     180.000       50.982      1.0        1
     180.000       51.041      1.0        1
     180.000       51.101      1.0        1
     180.000       51.163      1.0        1
     180.000       51.226      1.0        1
     180.000       51.290      1.0        1
     180.000       51.356      1.0        1
     180.000       51.423      1.0        1
     180.000       51.491      1.0        1
     180.000       51.561      1.0        1
     180.000       51.632      1.0        1
     180.000       51.705      1.0        1
     180.000       51.779      1.0        1
     180.000       51.854      1.0        1
     180.000       51.931      1.0        1
     180.000       52.008      1.0        1
     180.000       52.088      1.0        1
     180.000       52.168      1.0        1
     180.000       52.250      1.0        1
     180.000       52.334      1.0        1
     180.000       52.418      1.0        1
     180.000       52.505      1.0        1
     180.000       52.592      1.0        1
     180.000       52.681      1.0        1
     180.000       52.771      1.0        1
     180.000       52.862      1.0        1
     180.000       52.955      1.0        1
     180.000       53.049      1.0        1
     180.000       53.144      1.0        1
     180.000       53.240      1.0        1
     180.000       53.338      1.0        1
     180.000       53.438      1.0        1
     180.000       53.538      1.0        1
     180.000       53.640      1.0        1
     180.000       53.743      1.0        1
     180.000       53.847      1.0        1
     180.000       53.953      1.0        1
     180.000       54.060      1.0        1
     180.000       54.168      1.0        1
     180.000       54.278      1.0        1
     180.000       54.389      1.0        1
     180.000       54.501      1.0        1
     180.000       54.614      1.0        1
     180.000       54.729      1.0        1
     180.000       54.844      1.0        1
     180.000       54.962      1.0        1
     180.000       55.080      1.0        1
     180.000       55.200      1.0        1
     180.000       55.320      1.0        1
     180.000       55.442      1.0        1
     180.000       55.566      1.0        1
     180.000       55.690      1.0        1
     180.000       55.816      1.0        1
     180.000       55.943      1.0        1
     180.000       56.071      1.0        1
     180.000       56.200      1.0        1
     180.000       56.331      1.0        1
     180.000       56.463      1.0        1
     180.000       56.596      1.0        1
     180.000       56.730      1.0        1
     180.000       56.865      1.0        1
     180.000       57.002      1.0        1
     180.000       57.139      1.0        1
     180.000       57.278      1.0        1
     180.000       57.418      1.0        1
     180.000       57.559      1.0        1
     180.000       57.702      1.0        1
     180.000       57.845      1.0        1
     180.000       57.990      1.0        1
     180.000       58.136      1.0        1
     180.000       58.282      1.0        1
     180.000       58.431      1.0        1
     180.000       58.580      1.0        1
     180.000       58.730      1.0        1
     180.000       58.881      1.0        1
     180.000       59.034      1.0        1
     180.000       59.187      1.0        1
     180.000       59.342      1.0        1
     180.000       59.498      1.0        1
     180.000       59.655      1.0        1
     180.000       59.813      1.0        1
     180.000       59.972      1.0        1
     180.000       60.132      1.0        1
     180.000       60.293      1.0        1
     180.000       60.455      1.0        1
     180.000       60.618      1.0        1
     180.000       60.783      1.0        1
     180.000       60.948      1.0        1
     180.000       61.115      1.0        1
     180.000       61.282      1.0        1
     180.000       61.450      1.0        1
     180.000       61.620      1.0        1
     180.000       61.790      1.0        1
     180.000       61.962      1.0        1
     180.000       62.134      1.0        1
     180.000       62.308      1.0        1
     180.000       62.482      1.0        1
     180.000       62.658      1.0        1
     180.000       62.834      1.0        1
     180.000       63.011      1.0        1
     180.000       63.190      1.0        1
     180.000       63.369      1.0        1
     180.000       63.549      1.0        1
     180.000       63.730      1.0        1
     180.000       63.913      1.0        1
     180.000       64.096      1.0        1
     180.000       64.280      1.0        1
     180.000       64.464      1.0        1
     180.000       64.650      1.0        1
     180.000       64.837      1.0        1
     180.000       65.025      1.0        1
     180.000       65.213      1.0        1
     180.000       65.402      1.0        1
     180.000       65.593      1.0        1
     180.000       65.784      1.0        1
     180.000       65.976      1.0        1
     180.000       66.169      1.0        1
     180.000       66.362      1.0        1
     180.000       66.557      1.0        1
     180.000       66.752      1.0        1
     180.000       66.948      1.0        1
     180.000       67.145      1.0        1
     180.000       67.343      1.0        1
     180.000       67.542      1.0        1
     180.000       67.741      1.0        1
     180.000       67.942      1.0        1
     180.000       68.143      1.0        1
     180.000       68.344      1.0        1
     180.000       68.547      1.0        1
     180.000       68.750      1.0        1
     180.000       68.955      1.0        1
     180.000       69.159      1.0        1
     180.000       69.365      1.0        1
     180.000       69.571      1.0        1
     180.000       69.778      1.0        1
     180.000       69.986      1.0        1
     180.000       70.195      1.0        1
     180.000       70.404      1.0        1
     180.000       70.614      1.0        1
     180.000       70.824      1.0        1
     180.000       71.036      1.0        1
     180.000       71.248      1.0        1
     180.000       71.460      1.0        1
     180.000       71.674      1.0        1
     180.000       71.888      1.0        1
     180.000       72.102      1.0        1
     180.000       72.318      1.0        1
     180.000       72.533      1.0        1
     180.000       72.750      1.0        1
     180.000       72.967      1.0        1
     180.000       73.185      1.0        1
     180.000       73.403      1.0        1
     180.000       73.622      1.0        1
     180.000       73.842      1.0        1
     180.000       74.062      1.0        1
     180.000       74.282      1.0        1
     180.000       74.504      1.0        1
     180.000       74.726      1.0        1
     180.000       74.948      1.0        1
     180.000       75.171      1.0        1
     180.000       75.394      1.0        1
     180.000       75.618      1.0        1
     180.000       75.843      1.0        1
     180.000       76.068      1.0        1
     180.000       76.293      1.0        1
     180.000       76.519      1.0        1
     180.000       76.745      1.0        1
     180.000       76.972      1.0        1
     180.000       77.200      1.0        1
     180.000       77.428      1.0        1
     180.000       77.656      1.0        1
     180.000       77.885      1.0        1
     180.000       78.114      1.0        1
     180.000       78.344      1.0        1
     180.000       78.574      1.0        1
     180.000       78.804      1.0        1
     180.000       79.035      1.0        1
     180.000       79.266      1.0        1
     180.000       79.498      1.0        1
     180.000       79.730      1.0        1
     180.000       79.962      1.0        1
     180.000       80.195      1.0        1
     180.000       80.428      1.0        1
     180.000       80.662      1.0        1
     180.000       80.896      1.0        1
     180.000       81.130      1.0        1
     180.000       81.364      1.0        1
     180.000       81.599      1.0        1
     180.000       81.834      1.0        1
     180.000       82.070      1.0        1
     180.000       82.305      1.0        1
     180.000       82.541      1.0        1
     180.000       82.777      1.0        1
     180.000       83.014      1.0        1
     180.000       83.251      1.0        1
     180.000       83.488      1.0        1
     180.000       83.725      1.0        1
     180.000       83.962      1.0        1
     180.000       84.200      1.0        1
     180.000       84.438      1.0        1
     180.000       84.676      1.0        1
     180.000       84.915      1.0        1
     180.000       85.153      1.0        1
     180.000       85.392      1.0        1
     180.000       85.631      1.0        1
     180.000       85.870      1.0        1
     180.000       86.109      1.0        1
     180.000       86.348      1.0        1
     180.000       86.588      1.0        1
     180.000       86.827      1.0        1
     180.000       87.067      1.0        1
     180.000       87.307      1.0        1
     180.000       87.547      1.0        1
     180.000       87.787      1.0        1
     180.000       88.027      1.0        1
     180.000       88.267      1.0        1
     180.000       88.508      1.0        1
     180.000       88.748      1.0        1
     180.000       88.989      1.0        1
     180.000       89.229      1.0        1
     180.000       89.470      1.0        1
     180.000       89.710      1.0        1
     180.000       89.951      1.0        1
     180.000       90.191      1.0        1
     180.000       90.432      1.0        1
     180.000       90.672      1.0        1
     180.000       90.913      1.0        1
     180.000       91.154      1.0        1
     180.000       91.394      1.0        1
     180.000       91.635      1.0        1
     180.000       91.875      1.0        1
     180.000       92.115      1.0        1
     180.000       92.356      1.0        1
     180.000       92.596      1.0        1
     180.000       92.836      1.0        1
     180.000       93.076      1.0        1
     180.000       93.316      1.0        1
     180.000       93.556      1.0        1
     180.000       93.796      1.0        1
     180.000       94.036      1.0        1
     180.000       94.275      1.0        1
     180.000       94.515      1.0        1
     180.000       94.754      1.0        1
     180.000       94.993      1.0        1
     180.000       95.232      1.0        1
     180.000       95.471      1.0        1
     180.000       95.709      1.0        1
     180.000       95.948      1.0        1
     180.000       96.186      1.0        1
     180.000       96.424      1.0        1
     180.000       96.662      1.0        1
     180.000       96.899      1.0        1
     180.000       97.137      1.0        1
     180.000       97.374      1.0        1
     180.000       97.610      1.0        1
     180.000       97.847      1.0        1
     180.000       98.083      1.0        1
     180.000       98.319      1.0        1
     180.000       98.555      1.0        1
     180.000       98.791      1.0        1
     180.000       99.026      1.0        1
     180.000       99.261      1.0        1
     180.000       99.495      1.0        1
     180.000       99.730      1.0        1
     180.000       99.964      1.0        1
     180.000      100.197      1.0        1
     180.000      100.430      1.0        1
     180.000      100.663      1.0        1
     180.000      100.896      1.0        1
     180.000      101.128      1.0        1
     180.000      101.360      1.0        1
     180.000      101.591      1.0        1
     180.000      101.822      1.0        1
     180.000      102.053      1.0        1
     180.000      102.283      1.0        1
     180.000      102.513      1.0        1
     180.000      102.742      1.0        1
     180.000      102.971      1.0        1
     180.000      103.199      1.0        1
     180.000      103.427      1.0        1
     180.000      103.655      1.0        1
     180.000      103.882      1.0        1
     180.000      104.109      1.0        1
     180.000      104.335      1.0        1
     180.000      104.560      1.0        1
     180.000      104.786      1.0        1
     180.000      105.010      1.0        1
     180.000      105.234      1.0        1
     180.000      105.458      1.0        1
     180.000      105.681      1.0        1
     180.000      105.903      1.0        1
     180.000      106.125      1.0        1
     180.000      106.347      1.0        1
     180.000      106.568      1.0        1
     180.000      106.788      1.0        1
     180.000      107.008      1.0        1
     180.000      107.227      1.0        1
     180.000      107.445      1.0        1
     180.000      107.663      1.0        1
     180.000      107.881      1.0        1
     180.000      108.097      1.0        1
     180.000      108.313      1.0        1
     180.000      108.529      1.0        1
     180.000      108.744      1.0        1
     180.000      108.958      1.0        1
     180.000      109.171      1.0        1
     180.000      109.384      1.0        1
     180.000      109.596      1.0        1
     180.000      109.808      1.0        1
     180.000      110.019      1.0        1
     180.000      110.229      1.0        1
     180.000      110.438      1.0        1
     180.000      110.647      1.0        1
     180.000      110.855      1.0        1
     180.000      111.062      1.0        1
     180.000      111.269      1.0        1
     180.000      111.474      1.0        1
     180.000      111.679      1.0        1
     180.000      111.884      1.0        1
     180.000      112.087      1.0        1
     180.000      112.290      1.0        1
     180.000      112.492      1.0        1
     180.000      112.693      1.0        1
     180.000      112.894      1.0        1
     180.000      113.093      1.0        1
     180.000      113.292      1.0        1
     180.000      113.490      1.0        1
     180.000      113.687      1.0        1
     180.000      113.884      1.0        1
     180.000      114.079      1.0        1
     180.000      114.274      1.0        1
     180.000      114.468      1.0        1
     180.000      114.661      1.0        1
     180.000      114.853      1.0        1
     180.000      115.044      1.0        1
     180.000      115.235      1.0        1
     180.000      115.424      1.0        1
     180.000      115.613      1.0        1
     180.000      115.801      1.0        1
     180.000      115.987      1.0        1
     180.000      116.173      1.0        1
     180.000      116.358      1.0        1
     180.000      116.543      1.0        1
     180.000      116.726      1.0        1
     180.000      116.908      1.0        1
     180.000      117.089      1.0        1
     180.000      117.270      1.0        1
     180.000      117.449      1.0        1
     180.000      117.627      1.0        1
     180.000      117.805      1.0        1
     180.000      117.981      1.0        1
     180.000      118.157      1.0        1
     180.000      118.331      1.0        1
     180.000      118.505      1.0        1
     180.000      118.678      1.0        1
     180.000      118.849      1.0        1
     180.000      119.020      1.0        1
     180.000      119.189      1.0        1
     180.000      119.358      1.0        1
     180.000      119.525      1.0        1
     180.000      119.691      1.0        1
     180.000      119.857      1.0        1
     180.000      120.021      1.0        1
     180.000      120.184      1.0        1
     180.000      120.346      1.0        1
     180.000      120.508      1.0        1
     180.000      120.668      1.0        1
     180.000      120.827      1.0        1
     180.000      120.984      1.0        1
     180.000      121.141      1.0        1
     180.000      121.297      1.0        1
     180.000      121.452      1.0        1
     180.000      121.605      1.0        1
     180.000      121.757      1.0        1
     180.000      121.909      1.0        1
     180.000      122.059      1.0        1
     180.000      122.208      1.0        1
     180.000      122.355      1.0        1
     180.000      122.502      1.0        1
     180.000      122.648      1.0        1
     180.000      122.792      1.0        1
     180.000      122.935      1.0        1
     180.000      123.077      1.0        1
     180.000      123.218      1.0        1
     180.000      123.358      1.0        1
     180.000      123.496      1.0        1
     180.000      123.634      1.0        1
     180.000      123.770      1.0        1
     180.000      123.905      1.0        1
     180.000      124.038      1.0        1
     180.000      124.171      1.0        1
     180.000      124.302      1.0        1
     180.000      124.432      1.0        1
     180.000      124.561      1.0        1
     180.000      124.688      1.0        1
     180.000      124.815      1.0        1
     180.000      124.940      1.0        1
     180.000      125.064      1.0        1
     180.000      125.186      1.0        1
     180.000      125.308      1.0        1
     180.000      125.428      1.0        1
     180.000      125.547      1.0        1
     180.000      125.664      1.0        1
     180.000      125.780      1.0        1
     180.000      125.895      1.0        1
     180.000      126.009      1.0        1
     180.000      126.121      1.0        1
     180.000      126.233      1.0        1
     180.000      126.342      1.0        1
     180.000      126.451      1.0        1
     180.000      126.558      1.0        1
     180.000      126.664      1.0        1
     180.000      126.768      1.0        1
     180.000      126.872      1.0        1
     180.000      126.974      1.0        1
     180.000      127.074      1.0        1
     180.000      127.173      1.0        1
     180.000      127.271      1.0        1
     180.000      127.368      1.0        1
     180.000      127.463      1.0        1
     180.000      127.557      1.0        1
     180.000      127.649      1.0        1
     180.000      127.740      1.0        1
     180.000      127.830      1.0        1
     180.000      127.918      1.0        1
     180.000      128.005      1.0        1
     180.000      128.091      1.0        1
     180.000      128.175      1.0        1
     180.000      128.258      1.0        1
     180.000      128.339      1.0        1
     180.000      128.419      1.0        1
     180.000      128.498      1.0        1
     180.000      128.575      1.0        1
     180.000      128.651      1.0        1
     180.000      128.725      1.0        1
     180.000      128.798      1.0        1
     180.000      128.869      1.0        1
     180.000      128.939      1.0        1
     180.000      129.008      1.0        1
     180.000      129.075      1.0        1
     180.000      129.141      1.0        1
     180.000      129.206      1.0        1
     180.000      129.268      1.0        1
     180.000      129.330      1.0        1
     180.000      129.390      1.0        1
     180.000      129.448      1.0        1
     180.000      129.506      1.0        1
     180.000      129.561      1.0        1
     180.000      129.615      1.0        1
     180.000      129.668      1.0        1
     180.000      129.719      1.0        1
     180.000      129.769      1.0        1
     180.000      129.817      1.0        1
     180.000      129.864      1.0        1
     180.000      129.909      1.0        1
     180.000      129.953      1.0        1
     180.000      129.995      1.0        1
     180.000      130.036      1.0        1
     180.000      130.076      1.0        1
     180.000      130.113      1.0        1
     180.000      130.150      1.0        1
     180.000      130.185      1.0        1
     180.000      130.218      1.0        1
     180.000      130.250      1.0        1
     180.000      130.280      1.0        1
     180.000      130.309      1.0        1
     180.000      130.336      1.0        1
     180.000      130.362      1.0        1
     180.000      130.386      1.0        1
     180.000      130.408      1.0        1
     180.000      130.430      1.0        1
     180.000      130.449      1.0        1
     180.000      130.467      1.0        1
     180.000      130.484      1.0        1
     180.000      130.499      1.0        1
     180.000      130.512      1.0        1
     180.000      130.524      1.0        1
     180.000      130.534      1.0        1
     180.000      130.543      1.0        1
     180.000      130.550      1.0        1
     180.000      130.556      1.0        1
     180.000      130.560      1.0        1
     180.000      130.562      1.0        1
     180.000      130.563      2.0        1
     180.000      130.561      1.0        1
     180.000      130.557      1.0        1
     180.000      130.551      1.0        1
     180.000      130.545      1.0        1
     180.000      130.536      1.0        1
     180.000      130.526      1.0        1
     180.000      130.514      1.0        1
     180.000      130.501      1.0        1
     180.000      130.486      1.0        1
     180.000      130.470      1.0        1
     180.000      130.452      1.0        1
     180.000      130.432      1.0        1
     180.000      130.411      1.0        1
     180.000      130.388      1.0        1
     180.000      130.364      1.0        1
     180.000      130.338      1.0        1
     180.000      130.310      1.0        1
     180.000      130.281      1.0        1
     180.000      130.250      1.0        1
     180.000      130.218      1.0        1
     180.000      130.184      1.0        1
     180.000      130.148      1.0        1
     180.000      130.111      1.0        1
     180.000      130.072      1.0        1
     180.000      130.032      1.0        1
     180.000      129.990      1.0        1
     180.000      129.946      1.0        1
     180.000      129.901      1.0        1
     180.000      129.854      1.0        1
     180.000      129.805      1.0        1
     180.000      129.755      1.0        1
     180.000      129.704      1.0        1
     180.000      129.650      1.0        1
     180.000      129.595      1.0        1
     180.000      129.538      1.0        1
     180.000      129.480      1.0        1
     180.000      129.420      1.0        1
     180.000      129.359      1.0        1
     180.000      129.295      1.0        1
     180.000      129.231      1.0        1
     180.000      129.164      1.0        1
     180.000      129.096      1.0        1
     180.000      129.026      1.0        1
     180.000      128.955      1.0        1
     180.000      128.882      1.0        1
     180.000      128.807      1.0        1
     180.000      128.731      1.0        1
     180.000      128.653      1.0        1
     180.000      128.574      1.0        1
     180.000      128.492      1.0        1
     180.000      128.410      1.0        1
     180.000      128.325      1.0        1
     180.000      128.239      1.0        1
     180.000      128.151      1.0        1
     180.000      128.062      1.0        1
     180.000      127.971      1.0        1
     180.000      127.878      1.0        1
     180.000      127.784      1.0        1
     180.000      127.688      1.0        1
     180.000      127.590      1.0        1
     180.000      127.491      1.0        1
     180.000      127.390      1.0        1
     180.000      127.287      1.0        1
     180.000      127.183      1.0        1
     180.000      127.077      1.0        1
     180.000      126.969      1.0        1
     180.000      126.860      1.0        1
     180.000      126.749      1.0        1
     180.000      126.636      1.0        1
     180.000      126.522      1.0        1
     180.000      126.406      1.0        1
     180.000      126.289      1.0        1
     180.000      126.170      1.0        1
     180.000      126.049      1.0        1
     180.000      125.926      1.0        1
     180.000      125.802      1.0        1
     180.000      125.676      1.0        1
     180.000      125.549      1.0        1
     180.000      125.420      1.0        1
     180.000      125.289      1.0        1
     180.000      125.157      1.0        1
     180.000      125.023      1.0        1
     180.000      124.887      1.0        1
     180.000      124.749      1.0        1
     180.000      124.610      1.0        1
     180.000      124.470      1.0        1
     180.000      124.327      1.0        1
     180.000      124.183      1.0        1
     180.000      124.038      1.0        1
     180.000      123.890      1.0        1
     180.000      123.741      1.0        1
     180.000      123.591      1.0        1
     180.000      123.438      1.0        1
     180.000      123.284      1.0        1
     180.000      123.129      1.0        1
     180.000      122.971      1.0        1
     180.000      122.812      1.0        1
     180.000      122.652      1.0        1
     180.000      122.490      1.0        1
     180.000      122.326      1.0        1
     180.000      122.160      1.0        1
     180.000      121.993      1.0        1
     180.000      121.824      1.0        1
     180.000      121.653      1.0        1
     180.000      121.481      1.0        1
     180.000      121.307      1.0        1
     180.000      121.132      1.0        1
     180.000      120.955      1.0        1
     180.000      120.776      1.0        1
     180.000      120.595      1.0        1
     180.000      120.413      1.0        1
     180.000      120.230      1.0        1
     180.000      120.044      1.0        1
     180.000      119.857      1.0        1
     180.000      119.668      1.0        1
     180.000      119.478      1.0        1
     180.000      119.286      1.0        1
     180.000      119.092      1.0        1
     180.000      118.897      1.0        1
     180.000      118.700      1.0        1
     180.000      118.501      1.0        1
     180.000      118.301      1.0        1
     180.000      118.099      1.0        1
     180.000      117.896      1.0        1
     180.000      117.690      1.0        1
     180.000      117.484      1.0        1
     180.000      117.275      1.0        1
     180.000      117.065      1.0        1
     180.000      116.853      1.0        1
     180.000      116.640      1.0        1
     180.000      116.425      1.0        1
     180.000      116.208      1.0        1
     180.000      115.990      1.0        1
     180.000      115.770      1.0        1
     180.000      115.548      1.0        1
     180.000      115.325      1.0        1
     180.000      115.100      1.0        1
     180.000      114.873      1.0        1
     180.000      114.645      1.0        1
     180.000      114.415      1.0        1
     180.000      114.184      1.0        1
     180.000      113.951      1.0        1
     180.000      113.716      1.0        1
     180.000      113.479      1.0        1
     180.000      113.241      1.0        1
     180.000      113.002      1.0        1
     180.000      112.760      1.0        1
     180.000      112.518      1.0        1
     180.000      112.273      1.0        1
     180.000      112.027      1.0        1
     180.000      111.779      1.0        1
     180.000      111.530      1.0        1
     180.000      111.279      1.0        1
     180.000      111.026      1.0        1
     180.000      110.772      1.0        1
     180.000      110.516      1.0        1
     180.000      110.258      1.0        1
     180.000      109.999      1.0        1
     180.000      109.738      1.0        1
     180.000      109.476      1.0        1
     180.000      109.212      1.0        1
     180.000      108.946      1.0        1
     180.000      108.679      1.0        1
     180.000      108.410      1.0        1
     180.000      108.139      1.0        1
     180.000      107.867      1.0        1
     180.000      107.594      1.0        1
     180.000      107.318      1.0        1
     180.000      107.041      1.0        1
     180.000      106.763      1.0        1
     180.000      106.483      1.0        1
     180.000      106.201      1.0        1
     180.000      105.917      1.0        1
     180.000      105.632      1.0        1
     180.000      105.346      1.0        1
     180.000      105.057      1.0        1
     180.000      104.768      1.0        1
     180.000      104.476      1.0        1
     180.000      104.183      1.0        1
     180.000      103.888      1.0        1
     180.000      103.592      1.0        1
     180.000      103.294      1.0        1
     180.000      102.995      1.0        1
     180.000      102.694      1.0        1
     180.000      102.391      1.0        1
     180.000      102.087      1.0        1
     180.000      101.781      1.0        1
     180.000      101.473      1.0        1
     180.000      101.164      1.0        1
     180.000      100.854      1.0        1
     180.000      100.541      1.0        1
     180.000      100.228      1.0        1
     180.000       99.912      1.0        1
     180.000       99.595      1.0        1
     180.000       99.276      1.0        1
     180.000       98.956      1.0        1
     180.000       98.634      1.0        1
     180.000       98.311      1.0        1
     180.000       97.986      1.0        1
     180.000       97.659      1.0        1
     180.000       97.331      1.0        1
     180.000       97.002      1.0        1
     180.000       96.670      1.0        1
     180.000       96.337      1.0        1
     180.000       96.003      1.0        1
     180.000       95.667      1.0        1
     180.000       95.329      1.0        1
     180.000       94.990      1.0        1
     180.000       94.649      1.0        1
     180.000       94.306      1.0        1
     180.000       93.963      1.0        1
     180.000       93.617      1.0        1
     180.000       93.270      1.0        1
     180.000       92.921      1.0        1
     180.000       92.571      1.0        1
     180.000       92.219      1.0        1
     180.000       91.865      1.0        1
     180.000       91.510      1.0        1
     180.000       91.154      1.0        1
     180.000       90.796      1.0        1
     180.000       90.436      1.0        1
     180.000       90.075      1.0        1
     180.000       89.712      1.0        1
     180.000       89.347      1.0        1
     180.000       88.981      1.0        1
     180.000       88.614      1.0        1
     180.000       88.245      1.0        1
     180.000       87.874      1.0        1
     180.000       87.502      1.0        1
     180.000       87.128      1.0        1
     180.000       86.752      1.0        1
     180.000       86.375      1.0        1
     180.000       85.997      1.0        1
     180.000       85.617      1.0        1
     180.000       85.235      1.0        1
     180.000       84.852      1.0        1
     180.000       84.467      1.0        1
     180.000       84.081      1.0        1
     180.000       83.693      1.0        1
     180.000       83.303      1.0        1
     180.000       82.912      1.0        1
     180.000       82.519      1.0        1
     180.000       82.125      1.0        1
     180.000       81.730      1.0        1
     180.000       81.332      1.0        1
     180.000       80.934      1.0        1
     180.000       80.533      1.0        1
     180.000       80.131      1.0        1
     180.000       79.728      1.0        1
     180.000       79.323      1.0        1
     180.000       78.916      1.0        1
     180.000       78.508      1.0        1
     180.000       78.098      1.0        1
     180.000       77.687      1.0        1
     180.000       77.274      1.0        1
     180.000       76.860      1.0        1
     180.000       76.444      1.0        1
     180.000       76.026      1.0        1
     180.000       75.607      1.0        1
     180.000       75.187      1.0        1
     180.000       74.764      1.0        1
     180.000       74.341      1.0        1
     180.000       73.915      1.0        1
     180.000       73.489      1.0        1
     180.000       73.060      1.0        1
     180.000       72.630      1.0        1
     180.000       72.199      1.0        1
     180.000       71.766      1.0        1
     180.000       71.331      1.0        1
     180.000       70.895      1.0        1
     180.000       70.457      1.0        1
     180.000       70.018      1.0        1
     180.000       69.577      1.0        1
     180.000       69.135      1.0        1
     180.000       68.691      1.0        1
     180.000       68.246      1.0        1
     180.000       67.799      1.0        1
     180.000       67.350      1.0        1
     180.000       66.900      1.0        1
     180.000       66.449      1.0        1
     180.000       65.996      1.0        1
     180.000       65.541      1.0        1
     180.000       65.085      1.0        1
     180.000       64.627      1.0        1
     180.000       64.167      1.0        1
     180.000       63.706      1.0        1
     180.000       63.244      1.0        1
     180.000       62.780      1.0        1
     180.000       62.314      1.0        1
     180.000       61.847      1.0        1
     180.000       61.378      1.0        1
     180.000       60.908      1.0        1
     180.000       60.436      1.0        1
     180.000       59.963      1.0        1
     180.000       59.488      1.0        1
     180.000       59.012      1.0        1
     180.000       58.534      1.0        1
     180.000       58.054      1.0        1
     180.000       57.573      1.0        1
     180.000       57.090      1.0        1
     180.000       56.606      1.0        1
     180.000       56.120      1.0        1
     180.000       55.633      1.0        1
     180.000       55.144      1.0        1
     180.000       54.654      1.0        1
     180.000       54.162      1.0        1
     180.000       53.668      1.0        1
     180.000       53.173      1.0        1
     180.000       52.676      1.0        1
     180.000       52.178      1.0        1
     180.000       51.678      1.0        1
     180.000       51.177      1.0        1
     180.000       50.674      1.0        1
     180.000       50.169      1.0        1
     180.000       49.663      1.0        1
     180.000       49.156      1.0        1
     180.000       48.647      1.0        1
     180.000       48.136      1.0        1
     180.000       47.624      1.0        1
     180.000       47.110      1.0        1
     180.000       46.594      1.0        1
     180.000       46.077      1.0        1
     180.000       45.559      1.0        1
     180.000       45.039      1.0        1
     180.000       44.517      1.0        1
     180.000       43.993      1.0        1
     180.000       43.469      1.0        1
     180.000       42.942      1.0        1
     180.000       42.414      1.0        1
     180.000       41.885      1.0        1
     180.000       41.353      1.0        1
     180.000       40.821      1.0        1
     180.000       40.286      1.0        1
     180.000       39.750      1.0        1
     180.000       39.213      1.0        1
     180.000       38.674      1.0        1
     180.000       38.133      1.0        1
     180.000       37.591      1.0        1
     180.000       37.047      1.0        1
     180.000       36.502      1.0        1
     180.000       35.955      1.0        1
     180.000       35.406      1.0        1
     180.000       34.856      1.0        1
     180.000       34.304      1.0        1
     180.000       33.751      1.0        1
     180.000       33.196      1.0        1
     180.000       32.640      1.0        1
     180.000       32.081      1.0        1
     180.000       31.522      1.0        1
     180.000       30.960      1.0        1
     180.000       30.397      1.0        1
     180.000       29.833      1.0        1
     180.000       29.267      1.0        1
     180.000       28.699      1.0        1
     180.000       28.130      1.0        1
     180.000       27.559      1.0        1
     180.000       26.986      1.0        1
     180.000       26.412      1.0        1
     180.000       25.836      1.0        1
     180.000       25.259      1.0        1
     180.000       24.680      1.0        1
     180.000       24.099      1.0        1
     180.000       23.517      1.0        1
     180.000       22.933      1.0        1
     180.000       22.348      1.0        1
     180.000       21.761      1.0        1
     180.000       21.172      1.0        1
     180.000       20.582      1.0        1
     180.000       19.990      1.0        1
     180.000       19.396      1.0        1
     180.000       18.801      1.0        1
     180.000       18.204      1.0        1
     180.000       17.605      1.0        1
     180.000       17.005      1.0        1
     180.000       16.404      1.0        1
     180.000       15.800      1.0        1
     180.000       15.195      1.0        1
     180.000       14.588      1.0        1
     180.000       13.980      1.0        1
     180.000       13.370      1.0        1
     180.000       12.758      1.0        1
     180.000       12.145      1.0        1
     180.000       11.530      1.0        1
     180.000       10.914      1.0        1
     180.000       10.295      1.0        1
     180.000        9.676      1.0        1
     180.000        9.054      1.0        1
     180.000        8.431      1.0        1
     180.000        7.806      1.0        1
     180.000        7.179      1.0        1
     180.000        6.551      1.0        1
     180.000        5.921      1.0        1
     180.000        5.290      1.0        1
     180.000        4.656      1.0        1
     180.000        4.021      1.0        1
     180.000        3.385      1.0        1
     180.000        2.746      1.0        1
     180.000        2.107      1.0        1
     180.000        1.465      1.0        1
     180.000        0.822      1.0        1
     180.000        0.176      1.0        1
     180.000        0.000      1.0        1
       0.000        0.000      1.0        0
       0.000        0.000      1.0        1
       0.000        0.421      1.0        1
       0.000        1.074      1.0        1
       0.000        1.729      1.0        1
       0.000        2.386      1.0        1
       0.000        3.045      1.0        1
       0.000        3.705      1.0        1
       0.000        4.367      1.0        1
       0.000        5.031      1.0        1
       0.000        5.697      1.0        1
       0.000        6.364      1.0        1
       0.000        7.033      1.0        1
       0.000        7.704      1.0        1
       0.000        8.376      1.0        1
       0.000        9.050      1.0        1
       0.000        9.726      1.0        1
       0.000       10.404      1.0        1
       0.000       11.083      1.0        1
       0.000       11.764      1.0        1
       0.000       12.447      1.0        1
       0.000       13.131      1.0        1
       0.000       13.818      1.0        1
       0.000       14.506      1.0        1
       0.000       15.196      1.0        1
       0.000       15.887      1.0        1
       0.000       16.581      1.0        1
       0.000       17.276      1.0        1
       0.000       17.973      1.0        1
       0.000       18.671      1.0        1
       0.000       19.372      1.0        1
       0.000       20.074      1.0        1
       0.000       20.778      1.0        1
       0.000       21.484      1.0        1
       0.000       22.191      1.0        1
       0.000       22.901      1.0        1
       0.000       23.612      1.0        1
       0.000       24.325      1.0        1
       0.000       25.039      1.0        1
       0.000       25.756      1.0        1
       0.000       26.474      1.0        1
       0.000       27.194      1.0        1
       0.000       27.916      1.0        1
       0.000       28.640      1.0        1
       0.000       29.365      1.0        1
       0.000       30.092      1.0        1
       0.000       30.822      1.0        1
       0.000       31.553      1.0        1
       0.000       32.285      1.0        1
       0.000       33.020      1.0        1
       0.000       33.756      1.0        1
       0.000       34.495      1.0        1
       0.000       35.235      1.0        1
       0.000       35.977      1.0        1
       0.000       36.720      1.0        1
       0.000       37.466      1.0        1
       0.000       38.213      1.0        1
       0.000       38.963      1.0        1
       0.000       39.714      1.0        1
       0.000       40.467      1.0        1
       0.000       41.222      1.0        1
       0.000       41.978      1.0        1
       0.000       42.737      1.0        1
       0.000       43.497      1.0        1
       0.000       44.260      1.0        1
       0.000       45.024      1.0        1
       0.000       45.790      1.0        1
       0.000       46.558      1.0        1
       0.000       47.327      1.0        1
       0.000       48.099      1.0        1
       0.000       48.873      1.0        1
       0.000       49.648      1.0        1
       0.000       50.425      1.0        1
       0.000       51.205      1.0        1
       0.000       51.986      1.0        1
       0.000       52.769      1.0        1
       0.000       53.554      1.0        1
       0.000       54.341      1.0        1
       0.000       55.129      1.0        1
       0.000       55.920      1.0        1
       0.000       56.713      1.0        1
       0.000       57.507      1.0        1
       0.000       58.304      1.0        1
       0.000       59.102      1.0        1
       0.000       59.902      1.0        1
       0.000       60.704      1.0        1
       0.000       61.509      1.0        1
       0.000       62.315      1.0        1
       0.000       63.123      1.0        1
       0.000       63.933      1.0        1
       0.000       64.745      1.0        1
       0.000       65.558      1.0        1
       0.000       66.374      1.0        1
       0.000       67.192      1.0        1
       0.000       68.012      1.0        1
       0.000       68.833      1.0        1
       0.000       69.657      1.0        1
       0.000       70.483      1.0        1
       0.000       71.310      1.0        1
       0.000       72.140      1.0        1
       0.000       72.971      1.0        1
       0.000       73.805      1.0        1
       0.000       74.640      1.0        1
       0.000       75.478      1.0        1
       0.000       76.317      1.0        1
       0.000       77.159      1.0        1
       0.000       78.002      1.0        1
       0.000       78.848      1.0        1
       0.000       79.695      1.0        1
       0.000       80.544      1.0        1
       0.000       81.396      1.0        1
       0.000       82.249      1.0        1
       0.000       83.105      1.0        1
       0.000       83.962      1.0        1
       0.000       84.822      1.0        1
       0.000       85.683      1.0        1
       0.000       86.547      1.0        1
       0.000       87.412      1.0        1
       0.000       88.280      1.0        1
       0.000       89.150      1.0        1
       0.000       90.021      1.0        1
       0.000       90.895      1.0        1
       0.000       91.771      1.0        1
       0.000       92.649      1.0        1
       0.000       93.528      1.0        1
       0.000       94.410      1.0        1
       0.000       95.294      1.0        1
       0.000       96.180      1.0        1
       0.000       97.068      1.0        1
       0.000       97.958      1.0        1
       0.000       98.851      1.0        1
       0.000       99.745      1.0        1
       0.000      100.641      1.0        1
       0.000      101.539      1.0        1
       0.000      102.440      1.0        1
       0.000      103.342      1.0        1
       0.000      104.247      1.0        1
       0.000      105.154      1.0        1
       0.000      106.062      1.0        1
       0.000      106.973      1.0        1
       0.000      107.886      1.0        1
       0.000      108.801      1.0        1
       0.000      109.718      1.0        1
       0.000      110.638      1.0        1
       0.000      111.559      1.0        1
       0.000      112.482      1.0        1
       0.000      113.408      1.0        1
       0.000      114.336      1.0        1
       0.000      115.265      1.0        1
       0.000      116.197      1.0        1
       0.000      117.131      1.0        1
       0.000      118.067      1.0        1
       0.000      119.005      1.0        1
       0.000      119.946      1.0        1
       0.000      120.888      1.0        1
       0.000      121.833      1.0        1
       0.000      122.779      1.0        1
       0.000      123.728      1.0        1
       0.000      124.679      1.0        1
       0.000      125.632      1.0        1
       0.000      126.588      1.0        1
       0.000      127.545      1.0        1
       0.000      128.504      1.0        1
       0.000      129.466      1.0        1
       0.000      130.430      1.0        1
       0.000      131.396      1.0        1
       0.000      132.364      1.0        1
       0.000      133.334      1.0        1
       0.000      134.307      1.0        1
       0.000      135.281      1.0        1
       0.000      136.258      1.0        1
       0.000      137.237      1.0        1
       0.000      138.218      1.0        1
       0.000      139.201      1.0        1
       0.000      140.187      1.0        1
       0.000      141.174      1.0        1
       0.000      142.164      1.0        1
       0.000      143.156      1.0        1
       0.000      144.150      1.0        1
       0.000      145.146      1.0        1
       0.000      146.144      1.0        1
       0.000      147.145      1.0        1
       0.000      148.148      1.0        1
       0.000      149.153      1.0        1
       0.000      150.160      1.0        1
       0.000      151.169      1.0        1
       0.000      152.181      1.0        1
       0.000      153.195      1.0        1
       0.000      154.210      1.0        1
       0.000      155.229      1.0        1
       0.000      156.249      1.0        1
       0.000      157.271      1.0        1
       0.000      158.296      1.0        1
       0.000      159.323      1.0        1
       0.000      160.352      1.0        1
       0.000      161.383      1.0        1
       0.000      162.417      1.0        1
       0.000      163.452      1.0        1
       0.000      164.490      1.0        1
       0.000      165.530      1.0        1
       0.000      166.573      1.0        1
       0.000      167.617      1.0        1
       0.000      168.664      1.0        1
       0.000      169.713      1.0        1
       0.000      170.764      1.0        1
       0.000      171.817      1.0        1
       0.000      172.873      1.0        1
       0.000      173.930      1.0        1
       0.000      174.990      1.0        1
       0.000      176.053      1.0        1
       0.000      177.117      1.0        1
       0.000      178.184      1.0        1
       0.000      179.252      1.0        1
       0.000      180.324      1.0        1
       0.000      181.397      1.0        1
       0.000      182.472      1.0        1
       0.000      183.550      1.0        1
       0.000      184.630      1.0        1
       0.000      185.712      1.0        1
       0.000      186.796      1.0        1
       0.000      187.883      1.0        1
       0.000      188.972      1.0        1
       0.000      190.063      1.0        1
       0.000      191.156      1.0        1
       0.000      192.252      1.0        1
       0.000      193.349      1.0        1
       0.000      194.449      1.0        1
       0.000      195.551      1.0        1
       0.000      196.656      1.0        1
       0.000      197.762      1.0        1
       0.000      198.871      1.0        1
       0.000      199.982      1.0        1
       0.000      201.095      1.0        1
       0.000      202.211      1.0        1
       0.000      203.329      1.0        1
       0.000      204.448      1.0        1
       0.000      205.571      1.0        1
       0.000      206.695      1.0        1
       0.000      207.822      1.0        1
       0.000      208.950      1.0        1
       0.000      210.081      1.0        1
       0.000      211.215      1.0        1
       0.000      212.350      1.0        1
       0.000      213.488      1.0        1
       0.000      214.628      1.0        1
       0.000      215.770      1.0        1
       0.000      216.914      1.0        1
       0.000      218.061      1.0        1
       0.000      219.209      1.0        1
       0.000      220.360      1.0        1
       0.000      221.514      1.0        1
       0.000      222.669      1.0        1
       0.000      223.827      1.0        1
       0.000      224.986      1.0        1
       0.000      226.149      1.0        1
       0.000      227.313      1.0        1
       0.000      228.479      1.0        1
       0.000      229.648      1.0        1
       0.000      230.819      1.0        1
       0.000      231.992      1.0        1
       0.000      233.167      1.0        1
       0.000      234.345      1.0        1
       0.000      235.524      1.0        1
       0.000      236.706      1.0        1
       0.000      237.890      1.0        1
       0.000      239.076      1.0        1
       0.000      240.265      1.0        1
       0.000      241.455      1.0        1
       0.000      242.648      1.0        1
       0.000      243.843      1.0        1
       0.000      245.040      1.0        1
       0.000      246.240      1.0        1
       0.000      247.441      1.0        1
       0.000      248.645      1.0        1
       0.000      249.851      1.0        1
       0.000      251.059      1.0        1
       0.000      252.269      1.0        1
       0.000      253.482      1.0        1
       0.000      254.696      1.0        1
       0.000      255.913      1.0        1
       0.000      257.132      1.0        1
       0.000      258.353      1.0        1
       0.000      259.576      1.0        1
       0.000      260.802      1.0        1
       0.000      262.029      1.0        1
       0.000      263.259      1.0        1
       0.000      264.491      1.0        1
       0.000      265.725      1.0        1
       0.000      266.961      1.0        1
       0.000      268.199      1.0        1
       0.000      269.439      1.0        1
       0.000      270.682      1.0        1
       0.000      271.926      1.0        1
       0.000      273.173      1.0        1
       0.000      274.422      1.0        1
       0.000      275.673      1.0        1
       0.000      276.926      1.0        1
       0.000      278.181      1.0        1
       0.000      279.439      1.0        1
       0.000      280.698      1.0        1
       0.000      281.960      1.0        1
       0.000      283.223      1.0        1
       0.000      284.489      1.0        1
       0.000      285.757      1.0        1
       0.000      287.027      1.0        1
       0.000      288.299      1.0        1
       0.000      289.573      1.0        1
       0.000      290.849      1.0        1
       0.000      292.127      1.0        1
       0.000      293.407      1.0        1
       0.000      294.690      1.0        1
       0.000      295.974      1.0        1
       0.000      297.261      1.0        1
       0.000      298.549      1.0        1
       0.000      299.840      1.0        1
       0.000      301.132      1.0        1
       0.000      302.427      1.0        1
       0.000      303.723      1.0        1
       0.000      305.022      1.0        1
       0.000      306.323      1.0        1
       0.000      307.625      1.0        1
       0.000      308.930      1.0        1
       0.000      310.237      1.0        1
       0.000      311.546      1.0        1
       0.000      312.856      1.0        1
       0.000      314.169      1.0        1
       0.000      315.484      1.0        1
       0.000      316.800      1.0        1
       0.000      318.119      1.0        1
       0.000      319.440      1.0        1
       0.000      320.762      1.0        1
       0.000      322.087      1.0        1
       0.000      323.413      1.0        1
       0.000      324.741      1.0        1
       0.000      326.072      1.0        1
       0.000      327.404      1.0        1
       0.000      328.738      1.0        1
       0.000      330.075      1.0        1
       0.000      331.413      1.0        1
       0.000      332.753      1.0        1
       0.000      334.094      1.0        1
       0.000      335.438      1.0        1
       0.000      336.784      1.0        1
       0.000      338.131      1.0        1
       0.000      339.481      1.0        1
       0.000      340.832      1.0        1
       0.000      342.185      1.0        1
       0.000      343.540      1.0        1
       0.000      344.897      1.0        1
       0.000      346.256      1.0        1
       0.000      347.617      1.0        1
       0.000      348.979      1.0        1
       0.000      350.343      1.0        1
       0.000      351.709      1.0        1
       0.000      353.077      1.0        1
       0.000      354.447      1.0        1
       0.000      355.818      1.0        1
       0.000      357.191      1.0        1
       0.000      358.566      1.0        1
       0.000      359.943      1.0        1
       0.000      361.322      1.0        1
       0.000      362.702      1.0        1
       0.000      364.084      1.0        1
       0.000      365.468      1.0        1
       0.000      366.854      1.0        1
       0.000      368.241      1.0        1
       0.000      369.630      1.0        1
       0.000      371.021      1.0        1
       0.000      372.413      1.0        1
       0.000      373.807      1.0        1
       0.000      375.203      1.0        1
       0.000      376.601      1.0        1
       0.000      378.000      1.0        1
       0.000      379.401      1.0        1
       0.000      380.803      1.0        1
       0.000      382.207      1.0        1
       0.000      383.613      1.0        1
       0.000      385.020      1.0        1
       0.000      386.429      1.0        1
       0.000      387.840      1.0        1
       0.000      389.252      1.0        1
       0.000      390.666      1.0        1
       0.000      392.082      1.0        1
       0.000      393.499      1.0        1
       0.000      394.917      1.0        1
       0.000      396.337      1.0        1
       0.000      397.759      1.0        1
       0.000      399.182      1.0        1
       0.000      400.607      1.0        1
       0.000      402.033      1.0        1
       0.000      403.461      1.0        1
       0.000      404.890      1.0        1
       0.000      406.321      1.0        1
       0.000      407.753      1.0        1
       0.000      409.187      1.0        1
       0.000      410.622      1.0        1
       0.000      412.059      1.0        1
       0.000      413.497      1.0        1
       0.000      414.937      1.0        1
       0.000      416.378      1.0        1
       0.000      417.820      1.0        1
       0.000      419.264      1.0        1
       0.000      420.709      1.0        1
       0.000      422.155      1.0        1
       0.000      423.603      1.0        1
       0.000      425.053      1.0        1
       0.000      426.503      1.0        1
       0.000      427.955      1.0        1
       0.000      429.409      1.0        1
       0.000      430.863      1.0        1
       0.000      432.319      1.0        1
       0.000      433.776      1.0        1
       0.000      435.235      1.0        1
       0.000      436.695      1.0        1
       0.000      438.156      1.0        1
       0.000      439.618      1.0        1
       0.000      441.081      1.0        1
       0.000      442.546      1.0        1
       0.000      444.012      1.0        1
       0.000      445.479      1.0        1
       0.000      446.948      1.0        1
       0.000      448.417      1.0        1
       0.000      449.888      1.0        1
       0.000      451.360      1.0        1
       0.000      452.833      1.0        1
       0.000      454.307      1.0        1
       0.000      455.782      1.0        1
       0.000      457.259      1.0        1
       0.000      458.736      1.0        1
       0.000      460.215      1.0        1
       0.000      461.695      1.0        1
       0.000      463.175      1.0        1
       0.000      464.657      1.0        1
       0.000      466.140      1.0        1
       0.000      467.624      1.0        1
       0.000      469.109      1.0        1
       0.000      470.595      1.0        1
       0.000      472.081      1.0        1
       0.000      473.569      1.0        1
       0.000      475.058      1.0        1
       0.000      476.548      1.0        1
       0.000      478.038      1.0        1
       0.000      479.530      1.0        1
       0.000      481.023      1.0        1
       0.000      482.516      1.0        1
       0.000      484.010      1.0        1
       0.000      485.505      1.0        1
       0.000      487.001      1.0        1
       0.000      488.498      1.0        1
       0.000      489.996      1.0        1
       0.000      491.494      1.0        1
       0.000      492.994      1.0        1
       0.000      494.494      1.0        1
       0.000      495.995      1.0        1
       0.000      497.496      1.0        1
       0.000      498.999      1.0        1
       0.000      500.502      1.0        1
       0.000      502.006      1.0        1
       0.000      503.510      1.0        1
       0.000      505.016      1.0        1
       0.000      506.522      1.0        1
       0.000      508.028      1.0        1
       0.000      509.535      1.0        1
       0.000      511.043      1.0        1
       0.000      512.552      1.0        1
       0.000      514.061      1.0        1
       0.000      515.571      1.0        1
       0.000      517.081      1.0        1
       0.000      518.592      1.0        1
       0.000      520.103      1.0        1
       0.000      521.615      1.0        1
       0.000      523.127      1.0        1
       0.000      524.640      1.0        1
       0.000      526.154      1.0        1
       0.000      527.668      1.0        1
       0.000      529.182      1.0        1
       0.000      530.697      1.0        1
       0.000      532.212      1.0        1
       0.000      533.728      1.0        1
       0.000      535.244      1.0        1
       0.000      536.760      1.0        1
       0.000      538.277      1.0        1
       0.000      539.794      1.0        1
       0.000      541.312      1.0        1
       0.000      542.830      1.0        1
       0.000      544.348      1.0        1
       0.000      545.866      1.0        1
       0.000      547.385      1.0        1
       0.000      548.904      1.0        1
       0.000      550.423      1.0        1
       0.000      551.943      1.0        1
       0.000      553.462      1.0        1
       0.000      554.982      1.0        1
       0.000      556.502      1.0        1
       0.000      558.022      1.0        1
       0.000      559.543      1.0        1
       0.000      561.063      1.0        1
       0.000      562.584      1.0        1
       0.000      564.104      1.0        1
       0.000      565.625      1.0        1
       0.000      567.146      1.0        1
       0.000      568.667      1.0        1
       0.000      570.188      1.0        1
       0.000      571.709      1.0        1
       0.000      573.230      1.0        1
       0.000      574.751      1.0        1
       0.000      576.271      1.0        1
       0.000      577.792      1.0        1
       0.000      579.313      1.0        1
       0.000      580.834      1.0        1
       0.000      582.354      1.0        1
       0.000      583.875      1.0        1
       0.000      585.395      1.0        1
       0.000      586.915      1.0        1
       0.000      588.435      1.0        1
       0.000      589.955      1.0        1
       0.000      591.475      1.0        1
       0.000      592.994      1.0        1
       0.000      594.513      1.0        1
       0.000      596.032      1.0        1
       0.000      597.551      1.0        1
       0.000      599.069      1.0        1
       0.000      600.587      1.0        1
       0.000      602.105      1.0        1
       0.000      603.622      1.0        1
       0.000      605.139      1.0        1
       0.000      606.656      1.0        1
       0.000      608.172      1.0        1
       0.000      609.688      1.0        1
       0.000      611.203      1.0        1
       0.000      612.718      1.0        1
       0.000      614.233      1.0        1
       0.000      615.747      1.0        1
       0.000      617.260      1.0        1
       0.000      618.773      1.0        1
       0.000      620.286      1.0        1
       0.000      621.798      1.0        1
       0.000      623.309      1.0        1
       0.000      624.820      1.0        1
       0.000      626.330      1.0        1
       0.000      627.839      1.0        1
       0.000      629.348      1.0        1
       0.000      630.856      1.0        1
       0.000      632.364      1.0        1
       0.000      633.870      1.0        1
       0.000      635.377      1.0        1
       0.000      636.882      1.0        1
       0.000      638.386      1.0        1
       0.000      639.890      1.0        1
       0.000      641.393      1.0        1
       0.000      642.895      1.0        1
       0.000      644.397      1.0        1
       0.000      645.897      1.0        1
       0.000      647.397      1.0        1
       0.000      648.896      1.0        1
       0.000      650.394      1.0        1
       0.000      651.891      1.0        1
       0.000      653.387      1.0        1
       0.000      654.882      1.0        1
       0.000      656.376      1.0        1
       0.000      657.869      1.0        1
       0.000      659.361      1.0        1
       0.000      660.852      1.0        1
       0.000      662.342      1.0        1
       0.000      663.830      1.0        1
       0.000      665.318      1.0        1
       0.000      666.805      1.0        1
       0.000      668.290      1.0        1
       0.000      669.775      1.0        1
       0.000      671.258      1.0        1
       0.000      672.740      1.0        1
       0.000      674.221      1.0        1
       0.000      675.700      1.0        1
       0.000      677.179      1.0        1
       0.000      678.656      1.0        1
       0.000      680.132      1.0        1
       0.000      681.606      1.0        1
       0.000      683.079      1.0        1
       0.000      684.551      1.0        1
       0.000      686.022      1.0        1
       0.000      687.491      1.0        1
       0.000      688.958      1.0        1
       0.000      690.425      1.0        1
       0.000      691.889      1.0        1
       0.000      693.353      1.0        1
       0.000      694.815      1.0        1
       0.000      696.275      1.0        1
       0.000      697.734      1.0        1
       0.000      699.191      1.0        1
       0.000      700.647      1.0        1
       0.000      702.101      1.0        1
       0.000      703.554      1.0        1
       0.000      705.005      1.0        1
       0.000      706.454      1.0        1
       0.000      707.902      1.0        1
       0.000      709.348      1.0        1
       0.000      710.792      1.0        1
       0.000      712.235      1.0        1
       0.000      713.675      1.0        1
       0.000      715.115      1.0        1
       0.000      716.552      1.0        1
       0.000      717.987      1.0        1
       0.000      719.421      1.0        1
       0.000      720.853      1.0        1
       0.000      722.283      1.0        1
       0.000      723.711      1.0        1
       0.000      725.138      1.0        1
       0.000      726.562      1.0        1
       0.000      727.984      1.0        1
       0.000      729.405      1.0        1
       0.000      730.823      1.0        1
       0.000      732.240      1.0        1
       0.000      733.655      1.0        1
       0.000      735.067      1.0        1
       0.000      736.478      1.0        1
       0.000      737.886      1.0        1
       0.000      739.292      1.0        1
       0.000      740.696      1.0        1
       0.000      742.098      1.0        1
       0.000      743.498      1.0        1
       0.000      744.896      1.0        1
       0.000      746.292      1.0        1
       0.000      747.685      1.0        1
       0.000      749.076      1.0        1
       0.000      750.465      1.0        1
       0.000      751.852      1.0        1
       0.000      753.236      1.0        1
       0.000      754.618      1.0        1
       0.000      755.998      1.0        1
       0.000      757.375      1.0        1
       0.000      758.750      1.0        1
       0.000      760.122      1.0        1
       0.000      761.493      1.0        1
       0.000      762.860      1.0        1
       0.000      764.226      1.0        1
       0.000      765.589      1.0        1
       0.000      766.949      1.0        1
       0.000      768.307      1.0        1
       0.000      769.662      1.0        1
       0.000      771.015      1.0        1
       0.000      772.365      1.0        1
       0.000      773.713      1.0        1
       0.000      775.058      1.0        1
       0.000      776.400      1.0        1
       0.000      777.740      1.0        1
       0.000      779.077      1.0        1
       0.000      780.411      1.0        1
       0.000      781.743      1.0        1
       0.000      783.072      1.0        1
       0.000      784.398      1.0        1
       0.000      785.722      1.0        1
       0.000      787.042      1.0        1
       0.000      788.360      1.0        1
       0.000      789.675      1.0        1
       0.000      790.988      1.0        1
       0.000      792.297      1.0        1
       0.000      793.604      1.0        1
       0.000      794.907      1.0        1
       0.000      796.208      1.0        1
       0.000      797.506      1.0        1
       0.000      798.800      1.0        1
       0.000      800.092      1.0        1
       0.000      801.381      1.0        1
       0.000      802.667      1.0        1
       0.000      803.950      1.0        1
       0.000      805.229      1.0        1
       0.000      806.506      1.0        1
       0.000      807.780      1.0        1
       0.000      809.050      1.0        1
       0.000      810.317      1.0        1
       0.000      811.581      1.0        1
       0.000      812.842      1.0        1
       0.000      814.100      1.0        1
       0.000      815.355      1.0        1
       0.000      816.606      1.0        1
       0.000      817.854      1.0        1
       0.000      819.099      1.0        1
       0.000      820.341      1.0        1
       0.000      821.579      1.0        1
       0.000      822.814      1.0        1
       0.000      824.045      1.0        1
       0.000      825.274      1.0        1
       0.000      826.498      1.0        1
       0.000      827.720      1.0        1
       0.000      828.938      1.0        1
       0.000      830.153      1.0        1
       0.000      831.364      1.0        1
       0.000      832.571      1.0        1
       0.000      833.776      1.0        1
       0.000      834.976      1.0        1
       0.000      836.173      1.0        1
       0.000      837.367      1.0        1
       0.000      838.557      1.0        1
       0.000      839.743      1.0        1
       0.000      840.926      1.0        1
       0.000      842.105      1.0        1
       0.000      843.281      1.0        1
       0.000      844.453      1.0        1
       0.000      845.621      1.0        1
       0.000      846.785      1.0        1
       0.000      847.946      1.0        1
       0.000      849.103      1.0        1
       0.000      850.257      1.0        1
       0.000      851.406      1.0        1
       0.000      852.552      1.0        1
       0.000      853.694      1.0        1
       0.000      854.832      1.0        1
       0.000      855.966      1.0        1
       0.000      857.097      1.0        1
       0.000      858.223      1.0        1
       0.000      859.346      1.0        1
       0.000      860.464      1.0        1
       0.000      861.579      1.0        1
       0.000      862.690      1.0        1
       0.000      863.797      1.0        1
       0.000      864.900      1.0        1
       0.000      865.999      1.0        1
       0.000      867.094      1.0        1
       0.000      868.184      1.0        1
       0.000      869.271      1.0        1
       0.000      870.354      1.0        1
       0.000      871.432      1.0        1
       0.000      872.507      1.0        1
       0.000      873.577      1.0        1
       0.000      874.643      1.0        1
       0.000      875.706      1.0        1
       0.000      876.763      1.0        1
       0.000      877.817      1.0        1
       0.000      878.867      1.0        1
       0.000      879.912      1.0        1
       0.000      880.953      1.0        1
       0.000      881.990      1.0        1
       0.000      883.022      1.0        1
       0.000      884.050      1.0        1
       0.000      885.074      1.0        1
       0.000      886.093      1.0        1
       0.000      887.109      1.0        1
       0.000      888.119      1.0        1
       0.000      889.126      1.0        1
       0.000      890.128      1.0        1
       0.000      891.125      1.0        1
       0.000      892.119      1.0        1
       0.000      893.107      1.0        1
       0.000      894.092      1.0        1
       0.000      895.072      1.0        1
       0.000      896.047      1.0        1
       0.000      897.018      1.0        1
       0.000      897.984      1.0        1
       0.000      898.946      1.0        1
       0.000      899.903      1.0        1
       0.000      900.855      1.0        1
       0.000      901.803      1.0        1
       0.000      902.747      1.0        1
       0.000      903.686      1.0        1
       0.000      904.620      1.0        1
       0.000      905.549      1.0        1
       0.000      906.474      1.0        1
       0.000      907.394      1.0        1
       0.000      908.310      1.0        1
       0.000      909.221      1.0        1
       0.000      910.127      1.0        1
       0.000      911.028      1.0        1
       0.000      911.924      1.0        1
       0.000      912.816      1.0        1
       0.000      913.703      1.0        1
       0.000      914.585      1.0        1
       0.000      915.463      1.0        1
       0.000      916.335      1.0        1
       0.000      917.203      1.0        1
       0.000      918.066      1.0        1
       0.000      918.923      1.0        1
       0.000      919.777      1.0        1
       0.000      920.625      1.0        1
       0.000      921.468      1.0        1
       0.000      922.306      1.0        1
       0.000      923.140      1.0        1
       0.000      923.968      1.0        1
       0.000      924.791      1.0        1
       0.000      925.610      1.0        1
       0.000      926.423      1.0        1
       0.000      927.232      1.0        1
       0.000      928.035      1.0        1
       0.000      928.833      1.0        1
       0.000      929.627      1.0        1
       0.000      930.415      1.0        1
       0.000      931.198      1.0        1
       0.000      931.976      1.0        1
       0.000      932.749      1.0        1
       0.000      933.517      1.0        1
       0.000      934.279      1.0        1
       0.000      935.037      1.0        1
       0.000      935.789      1.0        1
       0.000      936.537      1.0        1
       0.000      937.279      1.0        1
       0.000      938.015      1.0        1
       0.000      938.747      1.0        1
       0.000      939.473      1.0        1
       0.000      940.194      1.0        1
       0.000      940.910      1.0        1
       0.000      941.621      1.0        1
       0.000      942.326      1.0        1
       0.000      943.026      1.0        1
       0.000      943.721      1.0        1
       0.000      944.411      1.0        1
       0.000      945.095      1.0        1
       0.000      945.774      1.0        1
       0.000      946.447      1.0        1
       0.000      947.115      1.0        1
       0.000      947.778      1.0        1
       0.000      948.435      1.0        1
       0.000      949.087      1.0        1
       0.000      949.734      1.0        1
       0.000      950.375      1.0        1
       0.000      951.011      1.0        1
       0.000      951.641      1.0        1
       0.000      952.266      1.0        1
       0.000      952.886      1.0        1
       0.000      953.500      1.0        1
       0.000      954.108      1.0        1
       0.000      954.711      1.0        1
       0.000      955.309      1.0        1
       0.000      955.901      1.0        1
       0.000      956.487      1.0        1
       0.000      957.068      1.0        1
       0.000      957.643      1.0        1
       0.000      958.213      1.0        1
       0.000      958.778      1.0        1
       0.000      959.336      1.0        1
       0.000      959.890      1.0        1
       0.000      960.437      1.0        1
       0.000      960.979      1.0        1
       0.000      961.516      1.0        1
       0.000      962.046      1.0        1
       0.000      962.572      1.0        1
       0.000      963.091      1.0        1
       0.000      963.605      1.0        1
       0.000      964.113      1.0        1
       0.000      964.616      1.0        1
       0.000      965.113      1.0        1
       0.000      965.604      1.0        1
       0.000      966.090      1.0        1
       0.000      966.569      1.0        1
       0.000      967.044      1.0        1
       0.000      967.512      1.0        1
       0.000      967.975      1.0        1
       0.000      968.432      1.0        1
       0.000      968.883      1.0        1
       0.000      969.329      1.0        1
       0.000      969.768      1.0        1
       0.000      970.202      1.0        1
       0.000      970.631      1.0        1
       0.000      971.053      1.0        1
       0.000      971.470      1.0        1
       0.000      971.881      1.0        1
       0.000      972.286      1.0        1
       0.000      972.685      1.0        1
       0.000      973.079      1.0        1
       0.000      973.466      1.0        1
       0.000      973.848      1.0        1
       0.000      974.224      1.0        1
       0.000      974.595      1.0        1
       0.000      974.959      1.0        1
       0.000      975.318      1.0        1
       0.000      975.670      1.0        1
       0.000      976.017      1.0        1
       0.000      976.358      1.0        1
       0.000      976.693      1.0        1
       0.000      977.022      1.0        1
       0.000      977.346      1.0        1
       0.000      977.663      1.0        1
       0.000      977.975      1.0        1
       0.000      978.280      1.0        1
       0.000      978.580      1.0        1
       0.000      978.874      1.0        1
       0.000      979.162      1.0        1
       0.000      979.444      1.0        1
       0.000      979.720      1.0        1
       0.000      979.990      1.0        1
       0.000      980.254      1.0        1
       0.000      980.513      1.0        1
       0.000      980.765      1.0        1
       0.000      981.011      1.0        1
       0.000      981.252      1.0        1
       0.000      981.486      1.0        1
       0.000      981.715      1.0        1
       0.000      981.937      1.0        1
       0.000      982.154      1.0        1
       0.000      982.365      1.0        1
       0.000      982.569      1.0        1
       0.000      982.768      1.0        1
       0.000      982.961      1.0        1
       0.000      983.147      1.0        1
       0.000      983.328      1.0        1
       0.000      983.503      1.0        1
       0.000      983.671      1.0        1
       0.000      983.834      1.0        1
       0.000      983.991      1.0        1
       0.000      984.142      1.0        1
       0.000      984.286      1.0        1
       0.000      984.425      1.0        1
       0.000      984.558      1.0        1
       0.000      984.684      1.0        1
       0.000      984.805      1.0        1
       0.000      984.919      1.0        1
       0.000      985.028      1.0        1
       0.000      985.131      1.0        1
       0.000      985.227      1.0        1
       0.000      985.318      1.0        1
       0.000      985.402      1.0        1
       0.000      985.481      1.0        1
       0.000      985.553      1.0        1
       0.000      985.620      1.0        1
       0.000      985.680      1.0        1
       0.000      985.734      1.0        1
       0.000      985.783      1.0        1
       0.000      985.825      1.0        1
       0.000      985.861      1.0        1
       0.000      985.891      1.0        1
       0.000      985.915      1.0        1
       0.000      985.934      1.0        1
       0.000      985.946      1.0        1
       0.000      985.952      2.0        1
       0.000      985.946      1.0        1
       0.000      985.934      1.0        1
       0.000      985.915      1.0        1
       0.000      985.891      1.0        1
       0.000      985.861      1.0        1
       0.000      985.825      1.0        1
       0.000      985.783      1.0        1
       0.000      985.734      1.0        1
       0.000      985.680      1.0        1
       0.000      985.620      1.0        1
       0.000      985.553      1.0        1
       0.000      985.481      1.0        1
       0.000      985.402      1.0        1
       0.000      985.318      1.0        1
       0.000      985.227      1.0        1
       0.000      985.131      1.0        1
       0.000      985.028      1.0        1
       0.000      984.919      1.0        1
       0.000      984.805      1.0        1
       0.000      984.684      1.0        1
       0.000      984.558      1.0        1
       0.000      984.425      1.0        1
       0.000      984.286      1.0        1
       0.000      984.142      1.0        1
       0.000      983.991      1.0        1
       0.000      983.834      1.0        1
       0.000      983.671      1.0        1
       0.000      983.503      1.0        1
       0.000      983.328      1.0        1
       0.000      983.147      1.0        1
       0.000      982.961      1.0        1
       0.000      982.768      1.0        1
       0.000      982.569      1.0        1
       0.000      982.365      1.0        1
       0.000      982.154      1.0        1
       0.000      981.937      1.0        1
       0.000      981.715      1.0        1
       0.000      981.486      1.0        1
       0.000      981.252      1.0        1
       0.000      981.011      1.0        1
       0.000      980.765      1.0        1
       0.000      980.513      1.0        1
       0.000      980.254      1.0        1
       0.000      979.990      1.0        1
       0.000      979.720      1.0        1
       0.000      979.444      1.0        1
       0.000      979.162      1.0        1
       0.000      978.874      1.0        1
       0.000      978.580      1.0        1
       0.000      978.280      1.0        1
       0.000      977.975      1.0        1
       0.000      977.663      1.0        1
       0.000      977.346      1.0        1
       0.000      977.022      1.0        1
       0.000      976.693      1.0        1
       0.000      976.358      1.0        1
       0.000      976.017      1.0        1
       0.000      975.670      1.0        1
       0.000      975.318      1.0        1
       0.000      974.959      1.0        1
       0.000      974.595      1.0        1
       0.000      974.224      1.0        1
       0.000      973.848      1.0        1
       0.000      973.466      1.0        1
       0.000      973.079      1.0        1
       0.000      972.685      1.0        1
       0.000      972.286      1.0        1
       0.000      971.881      1.0        1
       0.000      971.470      1.0        1
       0.000      971.053      1.0        1
       0.000      970.631      1.0        1
       0.000      970.202      1.0        1
       0.000      969.768      1.0        1
       0.000      969.329      1.0        1
       0.000      968.883      1.0        1
       0.000      968.432      1.0        1
       0.000      967.975      1.0        1
       0.000      967.512      1.0        1
       0.000      967.044      1.0        1
       0.000      966.569      1.0        1
       0.000      966.090      1.0        1
       0.000      965.604      1.0        1
       0.000      965.113      1.0        1
       0.000      964.616      1.0        1
       0.000      964.113      1.0        1
       0.000      963.605      1.0        1
       0.000      963.091      1.0        1
       0.000      962.572      1.0        1
       0.000      962.046      1.0        1
       0.000      961.516      1.0        1
       0.000      960.979      1.0        1
       0.000      960.437      1.0        1
       0.000      959.890      1.0        1
       0.000      959.336      1.0        1
       0.000      958.778      1.0        1
       0.000      958.213      1.0        1
       0.000      957.643      1.0        1
       0.000      957.068      1.0        1
       0.000      956.487      1.0        1
       0.000      955.901      1.0        1
       0.000      955.309      1.0        1
       0.000      954.711      1.0        1
       0.000      954.108      1.0        1
       0.000      953.500      1.0        1
       0.000      952.886      1.0        1
       0.000      952.266      1.0        1
       0.000      951.641      1.0        1
       0.000      951.011      1.0        1
       0.000      950.375      1.0        1
       0.000      949.734      1.0        1
       0.000      949.087      1.0        1
       0.000      948.435      1.0        1
       0.000      947.778      1.0        1
       0.000      947.115      1.0        1
       0.000      946.447      1.0        1
       0.000      945.774      1.0        1
       0.000      945.095      1.0        1
       0.000      944.411      1.0        1
       0.000      943.721      1.0        1
       0.000      943.026      1.0        1
       0.000      942.326      1.0        1
       0.000      941.621      1.0        1
       0.000      940.910      1.0        1
       0.000      940.194      1.0        1
       0.000      939.473      1.0        1
       0.000      938.747      1.0        1
       0.000      938.015      1.0        1
       0.000      937.279      1.0        1
       0.000      936.537      1.0        1
       0.000      935.789      1.0        1
       0.000      935.037      1.0        1
       0.000      934.279      1.0        1
       0.000      933.517      1.0        1
       0.000      932.749      1.0        1
       0.000      931.976      1.0        1
       0.000      931.198      1.0        1
       0.000      930.415      1.0        1
       0.000      929.627      1.0        1
       0.000      928.833      1.0        1
       0.000      928.035      1.0        1
       0.000      927.232      1.0        1
       0.000      926.423      1.0        1
       0.000      925.610      1.0        1
       0.000      924.791      1.0        1
       0.000      923.968      1.0        1
       0.000      923.140      1.0        1
       0.000      922.306      1.0        1
       0.000      921.468      1.0        1
       0.000      920.625      1.0        1
       0.000      919.777      1.0        1
       0.000      918.923      1.0        1
       0.000      918.066      1.0        1
       0.000      917.203      1.0        1
       0.000      916.335      1.0        1
       0.000      915.463      1.0        1
       0.000      914.585      1.0        1
       0.000      913.703      1.0        1
       0.000      912.816      1.0        1
       0.000      911.924      1.0        1
       0.000      911.028      1.0        1
       0.000      910.127      1.0        1
       0.000      909.221      1.0        1
       0.000      908.310      1.0        1
       0.000      907.394      1.0        1
       0.000      906.474      1.0        1
       0.000      905.549      1.0        1
       0.000      904.620      1.0        1
       0.000      903.686      1.0        1
       0.000      902.747      1.0        1
       0.000      901.803      1.0        1
       0.000      900.855      1.0        1
       0.000      899.903      1.0        1
       0.000      898.946      1.0        1
       0.000      897.984      1.0        1
       0.000      897.018      1.0        1
       0.000      896.047      1.0        1
       0.000      895.072      1.0        1
       0.000      894.092      1.0        1
       0.000      893.107      1.0        1
       0.000      892.119      1.0        1
       0.000      891.125      1.0        1
       0.000      890.128      1.0        1
       0.000      889.126      1.0        1
       0.000      888.119      1.0        1
       0.000      887.109      1.0        1
       0.000      886.093      1.0        1
       0.000      885.074      1.0        1
       0.000      884.050      1.0        1
       0.000      883.022      1.0        1
       0.000      881.990      1.0        1
       0.000      880.953      1.0        1
       0.000      879.912      1.0        1
       0.000      878.867      1.0        1
       0.000      877.817      1.0        1
       0.000      876.763      1.0        1
       0.000      875.706      1.0        1
       0.000      874.643      1.0        1
       0.000      873.577      1.0        1
       0.000      872.507      1.0        1
       0.000      871.432      1.0        1
       0.000      870.354      1.0        1
       0.000      869.271      1.0        1
       0.000      868.184      1.0        1
       0.000      867.094      1.0        1
       0.000      865.999      1.0        1
       0.000      864.900      1.0        1
       0.000      863.797      1.0        1
       0.000      862.690      1.0        1
       0.000      861.579      1.0        1
       0.000      860.464      1.0        1
       0.000      859.346      1.0        1
       0.000      858.223      1.0        1
       0.000      857.097      1.0        1
       0.000      855.966      1.0        1
       0.000      854.832      1.0        1
       0.000      853.694      1.0        1
       0.000      852.552      1.0        1
       0.000      851.406      1.0        1
       0.000      850.257      1.0        1
       0.000      849.103      1.0        1
       0.000      847.946      1.0        1
       0.000      846.785      1.0        1
       0.000      845.621      1.0        1
       0.000      844.453      1.0        1
       0.000      843.281      1.0        1
       0.000      842.105      1.0        1
       0.000      840.926      1.0        1
       0.000      839.743      1.0        1
       0.000      838.557      1.0        1
       0.000      837.367      1.0        1
       0.000      836.173      1.0        1
       0.000      834.976      1.0        1
       0.000      833.776      1.0        1
       0.000      832.571      1.0        1
       0.000      831.364      1.0        1
       0.000      830.153      1.0        1
       0.000      828.938      1.0        1
       0.000      827.720      1.0        1
       0.000      826.498      1.0        1
       0.000      825.274      1.0        1
       0.000      824.045      1.0        1
       0.000      822.814      1.0        1
       0.000      821.579      1.0        1
       0.000      820.341      1.0        1
       0.000      819.099      1.0        1
       0.000      817.854      1.0        1
       0.000      816.606      1.0        1
       0.000      815.355      1.0        1
       0.000      814.100      1.0        1
       0.000      812.842      1.0        1
       0.000      811.581      1.0        1
       0.000      810.317      1.0        1
       0.000      809.050      1.0        1
       0.000      807.780      1.0        1
       0.000      806.506      1.0        1
       0.000      805.229      1.0        1
       0.000      803.950      1.0        1
       0.000      802.667      1.0        1
       0.000      801.381      1.0        1
       0.000      800.092      1.0        1
       0.000      798.800      1.0        1
       0.000      797.506      1.0        1
       0.000      796.208      1.0        1
       0.000      794.907      1.0        1
       0.000      793.604      1.0        1
       0.000      792.297      1.0        1
       0.000      790.988      1.0        1
       0.000      789.675      1.0        1
       0.000      788.360      1.0        1
       0.000      787.042      1.0        1
       0.000      785.722      1.0        1
       0.000      784.398      1.0        1
       0.000      783.072      1.0        1
       0.000      781.743      1.0        1
       0.000      780.411      1.0        1
       0.000      779.077      1.0        1
       0.000      777.740      1.0        1
       0.000      776.400      1.0        1
       0.000      775.058      1.0        1
       0.000      773.713      1.0        1
       0.000      772.365      1.0        1
       0.000      771.015      1.0        1
       0.000      769.662      1.0        1
       0.000      768.307      1.0        1
       0.000      766.949      1.0        1
       0.000      765.589      1.0        1
       0.000      764.226      1.0        1
       0.000      762.860      1.0        1
       0.000      761.493      1.0        1
       0.000      760.122      1.0        1
       0.000      758.750      1.0        1
       0.000      757.375      1.0        1
       0.000      755.998      1.0        1
       0.000      754.618      1.0        1
       0.000      753.236      1.0        1
       0.000      751.852      1.0        1
       0.000      750.465      1.0        1
       0.000      749.076      1.0        1
       0.000      747.685      1.0        1
       0.000      746.292      1.0        1
       0.000      744.896      1.0        1
       0.000      743.498      1.0        1
       0.000      742.098      1.0        1
       0.000      740.696      1.0        1
       0.000      739.292      1.0        1
       0.000      737.886      1.0        1
       0.000      736.478      1.0        1
       0.000      735.067      1.0        1
       0.000      733.655      1.0        1
       0.000      732.240      1.0        1
       0.000      730.823      1.0        1
       0.000      729.405      1.0        1
       0.000      727.984      1.0        1
       0.000      726.562      1.0        1
       0.000      725.138      1.0        1
       0.000      723.711      1.0        1
       0.000      722.283      1.0        1
       0.000      720.853      1.0        1
       0.000      719.421      1.0        1
       0.000      717.987      1.0        1
       0.000      716.552      1.0        1
       0.000      715.115      1.0        1
       0.000      713.675      1.0        1
       0.000      712.235      1.0        1
       0.000      710.792      1.0        1
       0.000      709.348      1.0        1
       0.000      707.902      1.0        1
       0.000      706.454      1.0        1
       0.000      705.005      1.0        1
       0.000      703.554      1.0        1
       0.000      702.101      1.0        1
       0.000      700.647      1.0        1
       0.000      699.191      1.0        1
       0.000      697.734      1.0        1
       0.000      696.275      1.0        1
       0.000      694.815      1.0        1
       0.000      693.353      1.0        1
       0.000      691.889      1.0        1
       0.000      690.425      1.0        1
       0.000      688.958      1.0        1
       0.000      687.491      1.0        1
       0.000      686.022      1.0        1
       0.000      684.551      1.0        1
       0.000      683.079      1.0        1
       0.000      681.606      1.0        1
       0.000      680.132      1.0        1
       0.000      678.656      1.0        1
       0.000      677.179      1.0        1
       0.000      675.700      1.0        1
       0.000      674.221      1.0        1
       0.000      672.740      1.0        1
       0.000      671.258      1.0        1
       0.000      669.775      1.0        1
       0.000      668.290      1.0        1
       0.000      666.805      1.0        1
       0.000      665.318      1.0        1
       0.000      663.830      1.0        1
       0.000      662.342      1.0        1
       0.000      660.852      1.0        1
       0.000      659.361      1.0        1
       0.000      657.869      1.0        1
       0.000      656.376      1.0        1
       0.000      654.882      1.0        1
       0.000      653.387      1.0        1
       0.000      651.891      1.0        1
       0.000      650.394      1.0        1
       0.000      648.896      1.0        1
       0.000      647.397      1.0        1
       0.000      645.897      1.0        1
       0.000      644.397      1.0        1
       0.000      642.895      1.0        1
       0.000      641.393      1.0        1
       0.000      639.890      1.0        1
       0.000      638.386      1.0        1
       0.000      636.882      1.0        1
       0.000      635.377      1.0        1
       0.000      633.870      1.0        1
       0.000      632.364      1.0        1
       0.000      630.856      1.0        1
       0.000      629.348      1.0        1
       0.000      627.839      1.0        1
       0.000      626.330      1.0        1
       0.000      624.820      1.0        1
       0.000      623.309      1.0        1
       0.000      621.798      1.0        1
       0.000      620.286      1.0        1
       0.000      618.773      1.0        1
       0.000      617.260      1.0        1
       0.000      615.747      1.0        1
       0.000      614.233      1.0        1
       0.000      612.718      1.0        1
       0.000      611.203      1.0        1
       0.000      609.688      1.0        1
       0.000      608.172      1.0        1
       0.000      606.656      1.0        1
       0.000      605.139      1.0        1
       0.000      603.622      1.0        1
       0.000      602.105      1.0        1
       0.000      600.587      1.0        1
       0.000      599.069      1.0        1
       0.000      597.551      1.0        1
       0.000      596.032      1.0        1
       0.000      594.513      1.0        1
       0.000      592.994      1.0        1
       0.000      591.475      1.0        1
       0.000      589.955      1.0        1
       0.000      588.435      1.0        1
       0.000      586.915      1.0        1
       0.000      585.395      1.0        1
       0.000      583.875      1.0        1
       0.000      582.354      1.0        1
       0.000      580.834      1.0        1
       0.000      579.313      1.0        1
       0.000      577.792      1.0        1
       0.000      576.271      1.0        1
       0.000      574.751      1.0        1
       0.000      573.230      1.0        1
       0.000      571.709      1.0        1
       0.000      570.188      1.0        1
       0.000      568.667      1.0        1
       0.000      567.146      1.0        1
       0.000      565.625      1.0        1
       0.000      564.104      1.0        1
       0.000      562.584      1.0        1
       0.000      561.063      1.0        1
       0.000      559.543      1.0        1
       0.000      558.022      1.0        1
       0.000      556.502      1.0        1
       0.000      554.982      1.0        1
       0.000      553.462      1.0        1
       0.000      551.943      1.0        1
       0.000      550.423      1.0        1
       0.000      548.904      1.0        1
       0.000      547.385      1.0        1
       0.000      545.866      1.0        1
       0.000      544.348      1.0        1
       0.000      542.830      1.0        1
       0.000      541.312      1.0        1
       0.000      539.794      1.0        1
       0.000      538.277      1.0        1
       0.000      536.760      1.0        1
       0.000      535.244      1.0        1
       0.000      533.728      1.0        1
       0.000      532.212      1.0        1
       0.000      530.697      1.0        1
       0.000      529.182      1.0        1
       0.000      527.668      1.0        1
       0.000      526.154      1.0        1
       0.000      524.640      1.0        1
       0.000      523.127      1.0        1
       0.000      521.615      1.0        1
       0.000      520.103      1.0        1
       0.000      518.592      1.0        1
       0.000      517.081      1.0        1
       0.000      515.571      1.0        1
       0.000      514.061      1.0        1
       0.000      512.552      1.0        1
       0.000      511.043      1.0        1
       0.000      509.535      1.0        1
       0.000      508.028      1.0        1
       0.000      506.522      1.0        1
       0.000      505.016      1.0        1
       0.000      503.510      1.0        1
       0.000      502.006      1.0        1
       0.000      500.502      1.0        1
       0.000      498.999      1.0        1
       0.000      497.496      1.0        1
       0.000      495.995      1.0        1
       0.000      494.494      1.0        1
       0.000      492.994      1.0        1
       0.000      491.494      1.0        1
       0.000      489.996      1.0        1
       0.000      488.498      1.0        1
       0.000      487.001      1.0        1
       0.000      485.505      1.0        1
       0.000      484.010      1.0        1
       0.000      482.516      1.0        1
       0.000      481.023      1.0        1
       0.000      479.530      1.0        1
       0.000      478.038      1.0        1
       0.000      476.548      1.0        1
       0.000      475.058      1.0        1
       0.000      473.569      1.0        1
       0.000      472.081      1.0        1
       0.000      470.595      1.0        1
       0.000      469.109      1.0        1
       0.000      467.624      1.0        1
       0.000      466.140      1.0        1
       0.000      464.657      1.0        1
       0.000      463.175      1.0        1
       0.000      461.695      1.0        1
       0.000      460.215      1.0        1
       0.000      458.736      1.0        1
       0.000      457.259      1.0        1
       0.000      455.782      1.0        1
       0.000      454.307      1.0        1
       0.000      452.833      1.0        1
       0.000      451.360      1.0        1
       0.000      449.888      1.0        1
       0.000      448.417      1.0        1
       0.000      446.948      1.0        1
       0.000      445.479      1.0        1
       0.000      444.012      1.0        1
       0.000      442.546      1.0        1
       0.000      441.081      1.0        1
       0.000      439.618      1.0        1
       0.000      438.156      1.0        1
       0.000      436.695      1.0        1
       0.000      435.235      1.0        1
       0.000      433.776      1.0        1
       0.000      432.319      1.0        1
       0.000      430.863      1.0        1
       0.000      429.409      1.0        1
       0.000      427.955      1.0        1
       0.000      426.503      1.0        1
       0.000      425.053      1.0        1
       0.000      423.603      1.0        1
       0.000      422.155      1.0        1
       0.000      420.709      1.0        1
       0.000      419.264      1.0        1
       0.000      417.820      1.0        1
       0.000      416.378      1.0        1
       0.000      414.937      1.0        1
       0.000      413.497      1.0        1
       0.000      412.059      1.0        1
       0.000      410.622      1.0        1
       0.000      409.187      1.0        1
       0.000      407.753      1.0        1
       0.000      406.321      1.0        1
       0.000      404.890      1.0        1
       0.000      403.461      1.0        1
       0.000      402.033      1.0        1
       0.000      400.607      1.0        1
       0.000      399.182      1.0        1
       0.000      397.759      1.0        1
       0.000      396.337      1.0        1
       0.000      394.917      1.0        1
       0.000      393.499      1.0        1
       0.000      392.082      1.0        1
       0.000      390.666      1.0        1
       0.000      389.252      1.0        1
       0.000      387.840      1.0        1
       0.000      386.429      1.0        1
       0.000      385.020      1.0        1
       0.000      383.613      1.0        1
       0.000      382.207      1.0        1
       0.000      380.803      1.0        1
       0.000      379.401      1.0        1
       0.000      378.000      1.0        1
       0.000      376.601      1.0        1
       0.000      375.203      1.0        1
       0.000      373.807      1.0        1
       0.000      372.413      1.0        1
       0.000      371.021      1.0        1
       0.000      369.630      1.0        1
       0.000      368.241      1.0        1
       0.000      366.854      1.0        1
       0.000      365.468      1.0        1
       0.000      364.084      1.0        1
       0.000      362.702      1.0        1
       0.000      361.322      1.0        1
       0.000      359.943      1.0        1
       0.000      358.566      1.0        1
       0.000      357.191      1.0        1
       0.000      355.818      1.0        1
       0.000      354.447      1.0        1
       0.000      353.077      1.0        1
       0.000      351.709      1.0        1
       0.000      350.343      1.0        1
       0.000      348.979      1.0        1
       0.000      347.617      1.0        1
       0.000      346.256      1.0        1
       0.000      344.897      1.0        1
       0.000      343.540      1.0        1
       0.000      342.185      1.0        1
       0.000      340.832      1.0        1
       0.000      339.481      1.0        1
       0.000      338.131      1.0        1
       0.000      336.784      1.0        1
       0.000      335.438      1.0        1
       0.000      334.094      1.0        1
       0.000      332.753      1.0        1
       0.000      331.413      1.0        1
       0.000      330.075      1.0        1
       0.000      328.738      1.0        1
       0.000      327.404      1.0        1
       0.000      326.072      1.0        1
       0.000      324.741      1.0        1
       0.000      323.413      1.0        1
       0.000      322.087      1.0        1
       0.000      320.762      1.0        1
       0.000      319.440      1.0        1
       0.000      318.119      1.0        1
       0.000      316.800      1.0        1
       0.000      315.484      1.0        1
       0.000      314.169      1.0        1
       0.000      312.856      1.0        1
       0.000      311.546      1.0        1
       0.000      310.237      1.0        1
       0.000      308.930      1.0        1
       0.000      307.625      1.0        1
       0.000      306.323      1.0        1
       0.000      305.022      1.0        1
       0.000      303.723      1.0        1
       0.000      302.427      1.0        1
       0.000      301.132      1.0        1
       0.000      299.840      1.0        1
       0.000      298.549      1.0        1
       0.000      297.261      1.0        1
       0.000      295.974      1.0        1
       0.000      294.690      1.0        1
       0.000      293.407      1.0        1
       0.000      292.127      1.0        1
       0.000      290.849      1.0        1
       0.000      289.573      1.0        1
       0.000      288.299      1.0        1
       0.000      287.027      1.0        1
       0.000      285.757      1.0        1
       0.000      284.489      1.0        1
       0.000      283.223      1.0        1
       0.000      281.960      1.0        1
       0.000      280.698      1.0        1
       0.000      279.439      1.0        1
       0.000      278.181      1.0        1
       0.000      276.926      1.0        1
       0.000      275.673      1.0        1
       0.000      274.422      1.0        1
       0.000      273.173      1.0        1
       0.000      271.926      1.0        1
       0.000      270.682      1.0        1
       0.000      269.439      1.0        1
       0.000      268.199      1.0        1
       0.000      266.961      1.0        1
       0.000      265.725      1.0        1
       0.000      264.491      1.0        1
       0.000      263.259      1.0        1
       0.000      262.029      1.0        1
       0.000      260.802      1.0        1
       0.000      259.576      1.0        1
       0.000      258.353      1.0        1
       0.000      257.132      1.0        1
       0.000      255.913      1.0        1
       0.000      254.696      1.0        1
       0.000      253.482      1.0        1
       0.000      252.269      1.0        1
       0.000      251.059      1.0        1
       0.000      249.851      1.0        1
       0.000      248.645      1.0        1
       0.000      247.441      1.0        1
       0.000      246.240      1.0        1
       0.000      245.040      1.0        1
       0.000      243.843      1.0        1
       0.000      242.648      1.0        1
       0.000      241.455      1.0        1
       0.000      240.265      1.0        1
       0.000      239.076      1.0        1
       0.000      237.890      1.0        1
       0.000      236.706      1.0        1
       0.000      235.524      1.0        1
       0.000      234.345      1.0        1
       0.000      233.167      1.0        1
       0.000      231.992      1.0        1
       0.000      230.819      1.0        1
       0.000      229.648      1.0        1
       0.000      228.479      1.0        1
       0.000      227.313      1.0        1
       0.000      226.149      1.0        1
       0.000      224.986      1.0        1
       0.000      223.827      1.0        1
       0.000      222.669      1.0        1
       0.000      221.514      1.0        1
       0.000      220.360      1.0        1
       0.000      219.209      1.0        1
       0.000      218.061      1.0        1
       0.000      216.914      1.0        1
       0.000      215.770      1.0        1
       0.000      214.628      1.0        1
       0.000      213.488      1.0        1
       0.000      212.350      1.0        1
       0.000      211.215      1.0        1
       0.000      210.081      1.0        1
       0.000      208.950      1.0        1
       0.000      207.822      1.0        1
       0.000      206.695      1.0        1
       0.000      205.571      1.0        1
       0.000      204.448      1.0        1
       0.000      203.329      1.0        1
       0.000      202.211      1.0        1
       0.000      201.095      1.0        1
       0.000      199.982      1.0        1
       0.000      198.871      1.0        1
       0.000      197.762      1.0        1
       0.000      196.656      1.0        1
       0.000      195.551      1.0        1
       0.000      194.449      1.0        1
       0.000      193.349      1.0        1
       0.000      192.252      1.0        1
       0.000      191.156      1.0        1
       0.000      190.063      1.0        1
       0.000      188.972      1.0        1
       0.000      187.883      1.0        1
       0.000      186.796      1.0        1
       0.000      185.712      1.0        1
       0.000      184.630      1.0        1
       0.000      183.550      1.0        1
       0.000      182.472      1.0        1
       0.000      181.397      1.0        1
       0.000      180.324      1.0        1
       0.000      179.252      1.0        1
       0.000      178.184      1.0        1
       0.000      177.117      1.0        1
       0.000      176.053      1.0        1
       0.000      174.990      1.0        1
       0.000      173.930      1.0        1
       0.000      172.873      1.0        1
       0.000      171.817      1.0        1
       0.000      170.764      1.0        1
       0.000      169.713      1.0        1
       0.000      168.664      1.0        1
       0.000      167.617      1.0        1
       0.000      166.573      1.0        1
       0.000      165.530      1.0        1
       0.000      164.490      1.0        1
       0.000      163.452      1.0        1
       0.000      162.417      1.0        1
       0.000      161.383      1.0        1
       0.000      160.352      1.0        1
       0.000      159.323      1.0        1
       0.000      158.296      1.0        1
       0.000      157.271      1.0        1
       0.000      156.249      1.0        1
       0.000      155.229      1.0        1
       0.000      154.210      1.0        1
       0.000      153.195      1.0        1
       0.000      152.181      1.0        1
       0.000      151.169      1.0        1
       0.000      150.160      1.0        1
       0.000      149.153      1.0        1
       0.000      148.148      1.0        1
       0.000      147.145      1.0        1
       0.000      146.144      1.0        1
       0.000      145.146      1.0        1
       0.000      144.150      1.0        1
       0.000      143.156      1.0        1
       0.000      142.164      1.0        1
       0.000      141.174      1.0        1
       0.000      140.187      1.0        1
       0.000      139.201      1.0        1
       0.000      138.218      1.0        1
       0.000      137.237      1.0        1
       0.000      136.258      1.0        1
       0.000      135.281      1.0        1
       0.000      134.307      1.0        1
       0.000      133.334      1.0        1
       0.000      132.364      1.0        1
       0.000      131.396      1.0        1
       0.000      130.430      1.0        1
       0.000      129.466      1.0        1
       0.000      128.504      1.0        1
       0.000      127.545      1.0        1
       0.000      126.588      1.0        1
       0.000      125.632      1.0        1
       0.000      124.679      1.0        1
       0.000      123.728      1.0        1
       0.000      122.779      1.0        1
       0.000      121.833      1.0        1
       0.000      120.888      1.0        1
       0.000      119.946      1.0        1
       0.000      119.005      1.0        1
       0.000      118.067      1.0        1
       0.000      117.131      1.0        1
       0.000      116.197      1.0        1
       0.000      115.265      1.0        1
       0.000      114.336      1.0        1
       0.000      113.408      1.0        1
       0.000      112.482      1.0        1
       0.000      111.559      1.0        1
       0.000      110.638      1.0        1
       0.000      109.718      1.0        1
       0.000      108.801      1.0        1
       0.000      107.886      1.0        1
       0.000      106.973      1.0        1
       0.000      106.062      1.0        1
       0.000      105.154      1.0        1
       0.000      104.247      1.0        1
       0.000      103.342      1.0        1
       0.000      102.440      1.0        1
       0.000      101.539      1.0        1
       0.000      100.641      1.0        1
       0.000       99.745      1.0        1
       0.000       98.851      1.0        1
       0.000       97.958      1.0        1
       0.000       97.068      1.0        1
       0.000       96.180      1.0        1
       0.000       95.294      1.0        1
       0.000       94.410      1.0        1
       0.000       93.528      1.0        1
       0.000       92.649      1.0        1
       0.000       91.771      1.0        1
       0.000       90.895      1.0        1
       0.000       90.021      1.0        1
       0.000       89.150      1.0        1
       0.000       88.280      1.0        1
       0.000       87.412      1.0        1
       0.000       86.547      1.0        1
       0.000       85.683      1.0        1
       0.000       84.822      1.0        1
       0.000       83.962      1.0        1
       0.000       83.105      1.0        1
       0.000       82.249      1.0        1
       0.000       81.396      1.0        1
       0.000       80.544      1.0        1
       0.000       79.695      1.0        1
       0.000       78.848      1.0        1
       0.000       78.002      1.0        1
       0.000       77.159      1.0        1
       0.000       76.317      1.0        1
       0.000       75.478      1.0        1
       0.000       74.640      1.0        1
       0.000       73.805      1.0        1
       0.000       72.971      1.0        1
       0.000       72.140      1.0        1
       0.000       71.310      1.0        1
       0.000       70.483      1.0        1
       0.000       69.657      1.0        1
       0.000       68.833      1.0        1
       0.000       68.012      1.0        1
       0.000       67.192      1.0        1
       0.000       66.374      1.0        1
       0.000       65.558      1.0        1
       0.000       64.745      1.0        1
       0.000       63.933      1.0        1
       0.000       63.123      1.0        1
       0.000       62.315      1.0        1
       0.000       61.509      1.0        1
       0.000       60.704      1.0        1
       0.000       59.902      1.0        1
       0.000       59.102      1.0        1
       0.000       58.304      1.0        1
       0.000       57.507      1.0        1
       0.000       56.713      1.0        1
       0.000       55.920      1.0        1
       0.000       55.129      1.0        1
       0.000       54.341      1.0        1
       0.000       53.554      1.0        1
       0.000       52.769      1.0        1
       0.000       51.986      1.0        1
       0.000       51.205      1.0        1
       0.000       50.425      1.0        1
       0.000       49.648      1.0        1
       0.000       48.873      1.0        1
       0.000       48.099      1.0        1
       0.000       47.327      1.0        1
       0.000       46.558      1.0        1
       0.000       45.790      1.0        1
       0.000       45.024      1.0        1
       0.000       44.260      1.0        1
       0.000       43.497      1.0        1
       0.000       42.737      1.0        1
       0.000       41.978      1.0        1
       0.000       41.222      1.0        1
       0.000       40.467      1.0        1
       0.000       39.714      1.0        1
       0.000       38.963      1.0        1
       0.000       38.213      1.0        1
       0.000       37.466      1.0        1
       0.000       36.720      1.0        1
       0.000       35.977      1.0        1
       0.000       35.235      1.0        1
       0.000       34.495      1.0        1
       0.000       33.756      1.0        1
       0.000       33.020      1.0        1
       0.000       32.285      1.0        1
       0.000       31.553      1.0        1
       0.000       30.822      1.0        1
       0.000       30.092      1.0        1
       0.000       29.365      1.0        1
       0.000       28.640      1.0        1
       0.000       27.916      1.0        1
       0.000       27.194      1.0        1
       0.000       26.474      1.0        1
       0.000       25.756      1.0        1
       0.000       25.039      1.0        1
       0.000       24.325      1.0        1
       0.000       23.612      1.0        1
       0.000       22.901      1.0        1
       0.000       22.191      1.0        1
       0.000       21.484      1.0        1
       0.000       20.778      1.0        1
       0.000       20.074      1.0        1
       0.000       19.372      1.0        1
       0.000       18.671      1.0        1
       0.000       17.973      1.0        1
       0.000       17.276      1.0        1
       0.000       16.581      1.0        1
       0.000       15.887      1.0        1
       0.000       15.196      1.0        1
       0.000       14.506      1.0        1
       0.000       13.818      1.0        1
       0.000       13.131      1.0        1
       0.000       12.447      1.0        1
       0.000       11.764      1.0        1
       0.000       11.083      1.0        1
       0.000       10.404      1.0        1
       0.000        9.726      1.0        1
       0.000        9.050      1.0        1
       0.000        8.376      1.0        1
       0.000        7.704      1.0        1
       0.000        7.033      1.0        1
       0.000        6.364      1.0        1
       0.000        5.697      1.0        1
       0.000        5.031      1.0        1
       0.000        4.367      1.0        1
       0.000        3.705      1.0        1
       0.000        3.045      1.0        1
       0.000        2.386      1.0        1
       0.000        1.729      1.0        1
       0.000        1.074      1.0        1
       0.000        0.421      1.0        1
       0.000        0.000      1.0        1
       0.000        0.000      1.0        0
     180.000        0.000      1.0        1
     180.000        0.176      1.0        1
     180.000        0.822      1.0        1
     180.000        1.465      1.0        1
     180.000        2.107      1.0        1
     180.000        2.746      1.0        1
     180.000        3.385      1.0        1
     180.000        4.021      1.0        1
     180.000        4.656      1.0        1
     180.000        5.290      1.0        1
     180.000        5.921      1.0        1
     180.000        6.551      1.0        1
     180.000        7.179      1.0        1
     180.000        7.806      1.0        1
     180.000        8.431      1.0        1
     180.000        9.054      1.0        1
     180.000        9.676      1.0        1
     180.000       10.295      1.0        1
     180.000       10.914      1.0        1
     180.000       11.530      1.0        1
     180.000       12.145      1.0        1
     180.000       12.758      1.0        1
     180.000       13.370      1.0        1
     180.000       13.980      1.0        1
     180.000       14.588      1.0        1
     180.000       15.195      1.0        1
     180.000       15.800      1.0        1
     180.000       16.404      1.0        1
     180.000       17.005      1.0        1
     180.000       17.605      1.0        1
     180.000       18.204      1.0        1
     180.000       18.801      1.0        1
     180.000       19.396      1.0        1
     180.000       19.990      1.0        1
     180.000       20.582      1.0        1
     180.000       21.172      1.0        1
     180.000       21.761      1.0        1
     180.000       22.348      1.0        1
     180.000       22.933      1.0        1
     180.000       23.517      1.0        1
     180.000       24.099      1.0        1
     180.000       24.680      1.0        1
     180.000       25.259      1.0        1
     180.000       25.836      1.0        1
     180.000       26.412      1.0        1
     180.000       26.986      1.0        1
     180.000       27.559      1.0        1
     180.000       28.130      1.0        1
     180.000       28.699      1.0        1
     180.000       29.267      1.0        1
     180.000       29.833      1.0        1
     180.000       30.397      1.0        1
     180.000       30.960      1.0        1
     180.000       31.522      1.0        1
     180.000       32.081      1.0        1
     180.000       32.640      1.0        1
     180.000       33.196      1.0        1
     180.000       33.751      1.0        1
     180.000       34.304      1.0        1
     180.000       34.856      1.0        1
     180.000       35.406      1.0        1
     180.000       35.955      1.0        1
     180.000       36.502      1.0        1
     180.000       37.047      1.0        1
     180.000       37.591      1.0        1
     180.000       38.133      1.0        1
     180.000       38.674      1.0        1
     180.000       39.213      1.0        1
     180.000       39.750      1.0        1
     180.000       40.286      1.0        1
     180.000       40.821      1.0        1
     180.000       41.353      1.0        1
     180.000       41.885      1.0        1
     180.000       42.414      1.0        1
     180.000       42.942      1.0        1
     180.000       43.469      1.0        1
     180.000       43.993      1.0        1
     180.000       44.517      1.0        1
     180.000       45.039      1.0        1
     180.000       45.559      1.0        1
     180.000       46.077      1.0        1
     180.000       46.594      1.0        1
     180.000       47.110      1.0        1
     180.000       47.624      1.0        1
     180.000       48.136      1.0        1
     180.000       48.647      1.0        1
     180.000       49.156      1.0        1
     180.000       49.663      1.0        1
     180.000       50.169      1.0        1
     180.000       50.674      1.0        1
     180.000       51.177      1.0        1
     180.000       51.678      1.0        1
     180.000       52.178      1.0        1
     180.000       52.676      1.0        1
     180.000       53.173      1.0        1
     180.000       53.668      1.0        1
     180.000       54.162      1.0        1
     180.000       54.654      1.0        1
     180.000       55.144      1.0        1
     180.000       55.633      1.0        1
     180.000       56.120      1.0        1
     180.000       56.606      1.0        1
     180.000       57.090      1.0        1
     180.000       57.573      1.0        1
     180.000       58.054      1.0        1
     180.000       58.534      1.0        1
     180.000       59.012      1.0        1
     180.000       59.488      1.0        1
     180.000       59.963      1.0        1
     180.000       60.436      1.0        1
     180.000       60.908      1.0        1
     180.000       61.378      1.0        1
     180.000       61.847      1.0        1
     180.000       62.314      1.0        1
     180.000       62.780      1.0        1
     180.000       63.244      1.0        1
     180.000       63.706      1.0        1
     180.000       64.167      1.0        1
     180.000       64.627      1.0        1
     180.000       65.085      1.0        1
     180.000       65.541      1.0        1
     180.000       65.996      1.0        1
     180.000       66.449      1.0        1
     180.000       66.900      1.0        1
     180.000       67.350      1.0        1
     180.000       67.799      1.0        1
     180.000       68.246      1.0        1
     180.000       68.691      1.0        1
     180.000       69.135      1.0        1
     180.000       69.577      1.0        1
     180.000       70.018      1.0        1
     180.000       70.457      1.0        1
     180.000       70.895      1.0        1
     180.000       71.331      1.0        1
     180.000       71.766      1.0        1
     180.000       72.199      1.0        1
     180.000       72.630      1.0        1
     180.000       73.060      1.0        1
     180.000       73.489      1.0        1
     180.000       73.915      1.0        1
     180.000       74.341      1.0        1
     180.000       74.764      1.0        1
     180.000       75.187      1.0        1
     180.000       75.607      1.0        1
     180.000       76.026      1.0        1
     180.000       76.444      1.0        1
     180.000       76.860      1.0        1
     180.000       77.274      1.0        1
     180.000       77.687      1.0        1
     180.000       78.098      1.0        1
     180.000       78.508      1.0        1
     180.000       78.916      1.0        1
     180.000       79.323      1.0        1
     180.000       79.728      1.0        1
     180.000       80.131      1.0        1
     180.000       80.533      1.0        1
     180.000       80.934      1.0        1
     180.000       81.332      1.0        1
     180.000       81.730      1.0        1
     180.000       82.125      1.0        1
     180.000       82.519      1.0        1
     180.000       82.912      1.0        1
     180.000       83.303      1.0        1
     180.000       83.693      1.0        1
     180.000       84.081      1.0        1
     180.000       84.467      1.0        1
     180.000       84.852      1.0        1
     180.000       85.235      1.0        1
     180.000       85.617      1.0        1
     180.000       85.997      1.0        1
     180.000       86.375      1.0        1
     180.000       86.752      1.0        1
     180.000       87.128      1.0        1
     180.000       87.502      1.0        1
     180.000       87.874      1.0        1
     180.000       88.245      1.0        1
     180.000       88.614      1.0        1
     180.000       88.981      1.0        1
     180.000       89.347      1.0        1
     180.000       89.712      1.0        1
     180.000       90.075      1.0        1
     180.000       90.436      1.0        1
     180.000       90.796      1.0        1
     180.000       91.154      1.0        1
     180.000       91.510      1.0        1
     180.000       91.865      1.0        1
     180.000       92.219      1.0        1
     180.000       92.571      1.0        1
     180.000       92.921      1.0        1
     180.000       93.270      1.0        1
     180.000       93.617      1.0        1
     180.000       93.963      1.0        1
     180.000       94.306      1.0        1
     180.000       94.649      1.0        1
     180.000       94.990      1.0        1
     180.000       95.329      1.0        1
     180.000       95.667      1.0        1
     180.000       96.003      1.0        1
     180.000       96.337      1.0        1
     180.000       96.670      1.0        1
     180.000       97.002      1.0        1
     180.000       97.331      1.0        1
     180.000       97.659      1.0        1
     180.000       97.986      1.0        1
     180.000       98.311      1.0        1
     180.000       98.634      1.0        1
     180.000       98.956      1.0        1
     180.000       99.276      1.0        1
     180.000       99.595      1.0        1
     180.000       99.912      1.0        1
     180.000      100.228      1.0        1
     180.000      100.541      1.0        1
     180.000      100.854      1.0        1
     180.000      101.164      1.0        1
     180.000      101.473      1.0        1
     180.000      101.781      1.0        1
     180.000      102.087      1.0        1
     180.000      102.391      1.0        1
     180.000      102.694      1.0        1
     180.000      102.995      1.0        1
     180.000      103.294      1.0        1
     180.000      103.592      1.0        1
     180.000      103.888      1.0        1
     180.000      104.183      1.0        1
     180.000      104.476      1.0        1
     180.000      104.768      1.0        1
     180.000      105.057      1.0        1
     180.000      105.346      1.0        1
     180.000      105.632      1.0        1
     180.000      105.917      1.0        1
     180.000      106.201      1.0        1
     180.000      106.483      1.0        1
     180.000      106.763      1.0        1
     180.000      107.041      1.0        1
     180.000      107.318      1.0        1
     180.000      107.594      1.0        1
     180.000      107.867      1.0        1
     180.000      108.139      1.0        1
     180.000      108.410      1.0        1
     180.000      108.679      1.0        1
     180.000      108.946      1.0        1
     180.000      109.212      1.0        1
     180.000      109.476      1.0        1
     180.000      109.738      1.0        1
     180.000      109.999      1.0        1
     180.000      110.258      1.0        1
     180.000      110.516      1.0        1
     180.000      110.772      1.0        1
     180.000      111.026      1.0        1
     180.000      111.279      1.0        1
     180.000      111.530      1.0        1
     180.000      111.779      1.0        1
     180.000      112.027      1.0        1
     180.000      112.273      1.0        1
     180.000      112.518      1.0        1
     180.000      112.760      1.0        1
     180.000      113.002      1.0        1
     180.000      113.241      1.0        1
     180.000      113.479      1.0        1
     180.000      113.716      1.0        1
     180.000      113.951      1.0        1
     180.000      114.184      1.0        1
     180.000      114.415      1.0        1
     180.000      114.645      1.0        1
     180.000      114.873      1.0        1
     180.000      115.100      1.0        1
     180.000      115.325      1.0        1
     180.000      115.548      1.0        1
     180.000      115.770      1.0        1
     180.000      115.990      1.0        1
     180.000      116.208      1.0        1
     180.000      116.425      1.0        1
     180.000      116.640      1.0        1
     180.000      116.853      1.0        1
     180.000      117.065      1.0        1
     180.000      117.275      1.0        1
     180.000      117.484      1.0        1
     180.000      117.690      1.0        1
     180.000      117.896      1.0        1
     180.000      118.099      1.0        1
     180.000      118.301      1.0        1
     180.000      118.501      1.0        1
     180.000      118.700      1.0        1
     180.000      118.897      1.0        1
     180.000      119.092      1.0        1
     180.000      119.286      1.0        1
     180.000      119.478      1.0        1
     180.000      119.668      1.0        1
     180.000      119.857      1.0        1
     180.000      120.044      1.0        1
     180.000      120.230      1.0        1
     180.000      120.413      1.0        1
     180.000      120.595      1.0        1
     180.000      120.776      1.0        1
     180.000      120.955      1.0        1
     180.000      121.132      1.0        1
     180.000      121.307      1.0        1
     180.000      121.481      1.0        1
     180.000      121.653      1.0        1
     180.000      121.824      1.0        1
     180.000      121.993      1.0        1
     180.000      122.160      1.0        1
     180.000      122.326      1.0        1
     180.000      122.490      1.0        1
     180.000      122.652      1.0        1
     180.000      122.812      1.0        1
     180.000      122.971      1.0        1
     180.000      123.129      1.0        1
     180.000      123.284      1.0        1
     180.000      123.438      1.0        1
     180.000      123.591      1.0        1
     180.000      123.741      1.0        1
     180.000      123.890      1.0        1
     180.000      124.038      1.0        1
     180.000      124.183      1.0        1
     180.000      124.327      1.0        1
     180.000      124.470      1.0        1
     180.000      124.610      1.0        1
     180.000      124.749      1.0        1
     180.000      124.887      1.0        1
     180.000      125.023      1.0        1
     180.000      125.157      1.0        1
     180.000      125.289      1.0        1
     180.000      125.420      1.0        1
     180.000      125.549      1.0        1
     180.000      125.676      1.0        1
     180.000      125.802      1.0        1
     180.000      125.926      1.0        1
     180.000      126.049      1.0        1
     180.000      126.170      1.0        1
     180.000      126.289      1.0        1
     180.000      126.406      1.0        1
     180.000      126.522      1.0        1
     180.000      126.636      1.0        1
     180.000      126.749      1.0        1
     180.000      126.860      1.0        1
     180.000      126.969      1.0        1
     180.000      127.077      1.0        1
     180.000      127.183      1.0        1
     180.000      127.287      1.0        1
     180.000      127.390      1.0        1
     180.000      127.491      1.0        1
     180.000      127.590      1.0        1
     180.000      127.688      1.0        1
     180.000      127.784      1.0        1
     180.000      127.878      1.0        1
     180.000      127.971      1.0        1
     180.000      128.062      1.0        1
     180.000      128.151      1.0        1
     180.000      128.239      1.0        1
     180.000      128.325      1.0        1
     180.000      128.410      1.0        1
     180.000      128.492      1.0        1
     180.000      128.574      1.0        1
     180.000      128.653      1.0        1
     180.000      128.731      1.0        1
     180.000      128.807      1.0        1
     180.000      128.882      1.0        1
     180.000      128.955      1.0        1
     180.000      129.026      1.0        1
     180.000      129.096      1.0        1
     180.000      129.164      1.0        1
     180.000      129.231      1.0        1
     180.000      129.295      1.0        1
     180.000      129.359      1.0        1
     180.000      129.420      1.0        1
     180.000      129.480      1.0        1
     180.000      129.538      1.0        1
     180.000      129.595      1.0        1
     180.000      129.650      1.0        1
     180.000      129.704      1.0        1
     180.000      129.755      1.0        1
     180.000      129.805      1.0        1
     180.000      129.854      1.0        1
     180.000      129.901      1.0        1
     180.000      129.946      1.0        1
     180.000      129.990      1.0        1
     180.000      130.032      1.0        1
     180.000      130.072      1.0        1
     180.000      130.111      1.0        1
     180.000      130.148      1.0        1
     180.000      130.184      1.0        1
     180.000      130.218      1.0        1
     180.000      130.250      1.0        1
     180.000      130.281      1.0        1
     180.000      130.310      1.0        1
     180.000      130.338      1.0        1
     180.000      130.364      1.0        1
     180.000      130.388      1.0        1
     180.000      130.411      1.0        1
     180.000      130.432      1.0        1
     180.000      130.452      1.0        1
     180.000      130.470      1.0        1
     180.000      130.486      1.0        1
     180.000      130.501      1.0        1
     180.000      130.514      1.0        1
     180.000      130.526      1.0        1
     180.000      130.536      1.0        1
     180.000      130.545      1.0        1
     180.000      130.551      1.0        1
     180.000      130.557      1.0        1
     180.000      130.561      1.0        1
     180.000      130.563      2.0        1
     180.000      130.562      1.0        1
     180.000      130.560      1.0        1
     180.000      130.556      1.0        1
     180.000      130.550      1.0        1
     180.000      130.543      1.0        1
     180.000      130.534      1.0        1
     180.000      130.524      1.0        1
     180.000      130.512      1.0        1
     180.000      130.499      1.0        1
     180.000      130.484      1.0        1
     180.000      130.467      1.0        1
     180.000      130.449      1.0        1
     180.000      130.430      1.0        1
     180.000      130.408      1.0        1
     180.000      130.386      1.0        1
     180.000      130.362      1.0        1
     180.000      130.336      1.0        1
     180.000      130.309      1.0        1
     180.000      130.280      1.0        1
     180.000      130.250      1.0        1
     180.000      130.218      1.0        1
     180.000      130.185      1.0        1
     180.000      130.150      1.0        1
     180.000      130.113      1.0        1
     180.000      130.076      1.0        1
     180.000      130.036      1.0        1
     180.000      129.995      1.0        1
     180.000      129.953      1.0        1
     180.000      129.909      1.0        1
     180.000      129.864      1.0        1
     180.000      129.817      1.0        1
     180.000      129.769      1.0        1
     180.000      129.719      1.0        1
     180.000      129.668      1.0        1
     180.000      129.615      1.0        1
     180.000      129.561      1.0        1
     180.000      129.506      1.0        1
     180.000      129.448      1.0        1
     180.000      129.390      1.0        1
     180.000      129.330      1.0        1
     180.000      129.268      1.0        1
     180.000      129.206      1.0        1
     180.000      129.141      1.0        1
     180.000      129.075      1.0        1
     180.000      129.008      1.0        1
     180.000      128.939      1.0        1
     180.000      128.869      1.0        1
     180.000      128.798      1.0        1
     180.000      128.725      1.0        1
     180.000      128.651      1.0        1
     180.000      128.575      1.0        1
     180.000      128.498      1.0        1
     180.000      128.419      1.0        1
     180.000      128.339      1.0        1
     180.000      128.258      1.0        1
     180.000      128.175      1.0        1
     180.000      128.091      1.0        1
     180.000      128.005      1.0        1
     180.000      127.918      1.0        1
     180.000      127.830      1.0        1
     180.000      127.740      1.0        1
     180.000      127.649      1.0        1
     180.000      127.557      1.0        1
     180.000      127.463      1.0        1
     180.000      127.368      1.0        1
     180.000      127.271      1.0        1
     180.000      127.173      1.0        1
     180.000      127.074      1.0        1
     180.000      126.974      1.0        1
     180.000      126.872      1.0        1
     180.000      126.768      1.0        1
     180.000      126.664      1.0        1
     180.000      126.558      1.0        1
     180.000      126.451      1.0        1
     180.000      126.342      1.0        1
     180.000      126.233      1.0        1
     180.000      126.121      1.0        1
     180.000      126.009      1.0        1
     180.000      125.895      1.0        1
     180.000      125.780      1.0        1
     180.000      125.664      1.0        1
     180.000      125.547      1.0        1
     180.000      125.428      1.0        1
     180.000      125.308      1.0        1
     180.000      125.186      1.0        1
     180.000      125.064      1.0        1
     180.000      124.940      1.0        1
     180.000      124.815      1.0        1
     180.000      124.688      1.0        1
     180.000      124.561      1.0        1
     180.000      124.432      1.0        1
     180.000      124.302      1.0        1
     180.000      124.171      1.0        1
     180.000      124.038      1.0        1
     180.000      123.905      1.0        1
     180.000      123.770      1.0        1
     180.000      123.634      1.0        1
     180.000      123.496      1.0        1
     180.000      123.358      1.0        1
     180.000      123.218      1.0        1
     180.000      123.077      1.0        1
     180.000      122.935      1.0        1
     180.000      122.792      1.0        1
     180.000      122.648      1.0        1
     180.000      122.502      1.0        1
     180.000      122.355      1.0        1
     180.000      122.208      1.0        1
     180.000      122.059      1.0        1
     180.000      121.909      1.0        1
     180.000      121.757      1.0        1
     180.000      121.605      1.0        1
     180.000      121.452      1.0        1
     180.000      121.297      1.0        1
     180.000      121.141      1.0        1
     180.000      120.984      1.0        1
     180.000      120.827      1.0        1
     180.000      120.668      1.0        1
     180.000      120.508      1.0        1
     180.000      120.346      1.0        1
     180.000      120.184      1.0        1
     180.000      120.021      1.0        1
     180.000      119.857      1.0        1
     180.000      119.691      1.0        1
     180.000      119.525      1.0        1
     180.000      119.358      1.0        1
     180.000      119.189      1.0        1
     180.000      119.020      1.0        1
     180.000      118.849      1.0        1
     180.000      118.678      1.0        1
     180.000      118.505      1.0        1
     180.000      118.331      1.0        1
     180.000      118.157      1.0        1
     180.000      117.981      1.0        1
     180.000      117.805      1.0        1
     180.000      117.627      1.0        1
     180.000      117.449      1.0        1
     180.000      117.270      1.0        1
     180.000      117.089      1.0        1
     180.000      116.908      1.0        1
     180.000      116.726      1.0        1
     180.000      116.543      1.0        1
     180.000      116.358      1.0        1
     180.000      116.173      1.0        1
     180.000      115.987      1.0        1
     180.000      115.801      1.0        1
     180.000      115.613      1.0        1
     180.000      115.424      1.0        1
     180.000      115.235      1.0        1
     180.000      115.044      1.0        1
     180.000      114.853      1.0        1
     180.000      114.661      1.0        1
     180.000      114.468      1.0        1
     180.000      114.274      1.0        1
     180.000      114.079      1.0        1
     180.000      113.884      1.0        1
     180.000      113.687      1.0        1
     180.000      113.490      1.0        1
     180.000      113.292      1.0        1
     180.000      113.093      1.0        1
     180.000      112.894      1.0        1
     180.000      112.693      1.0        1
     180.000      112.492      1.0        1
     180.000      112.290      1.0        1
     180.000      112.087      1.0        1
     180.000      111.884      1.0        1
     180.000      111.679      1.0        1
     180.000      111.474      1.0        1
     180.000      111.269      1.0        1
     180.000      111.062      1.0        1
     180.000      110.855      1.0        1
     180.000      110.647      1.0        1
     180.000      110.438      1.0        1
     180.000      110.229      1.0        1
     180.000      110.019      1.0        1
     180.000      109.808      1.0        1
     180.000      109.596      1.0        1
     180.000      109.384      1.0        1
     180.000      109.171      1.0        1
     180.000      108.958      1.0        1
     180.000      108.744      1.0        1
     180.000      108.529      1.0        1
     180.000      108.313      1.0        1
     180.000      108.097      1.0        1
     180.000      107.881      1.0        1
     180.000      107.663      1.0        1
     180.000      107.445      1.0        1
     180.000      107.227      1.0        1
     180.000      107.008      1.0        1
     180.000      106.788      1.0        1
     180.000      106.568      1.0        1
     180.000      106.347      1.0        1
     180.000      106.125      1.0        1
     180.000      105.903      1.0        1
     180.000      105.681      1.0        1
     180.000      105.458      1.0        1
     180.000      105.234      1.0        1
     180.000      105.010      1.0        1
     180.000      104.786      1.0        1
     180.000      104.560      1.0        1
     180.000      104.335      1.0        1
     180.000      104.109      1.0        1
     180.000      103.882      1.0        1
     180.000      103.655      1.0        1
     180.000      103.427      1.0        1
     180.000      103.199      1.0        1
     180.000      102.971      1.0        1
     180.000      102.742      1.0        1
     180.000      102.513      1.0        1
     180.000      102.283      1.0        1
     180.000      102.053      1.0        1
     180.000      101.822      1.0        1
     180.000      101.591      1.0        1
     180.000      101.360      1.0        1
     180.000      101.128      1.0        1
     180.000      100.896      1.0        1
     180.000      100.663      1.0        1
     180.000      100.430      1.0        1
     180.000      100.197      1.0        1
     180.000       99.964      1.0        1
     180.000       99.730      1.0        1
     180.000       99.495      1.0        1
     180.000       99.261      1.0        1
     180.000       99.026      1.0        1
     180.000       98.791      1.0        1
     180.000       98.555      1.0        1
     180.000       98.319      1.0        1
     180.000       98.083      1.0        1
     180.000       97.847      1.0        1
     180.000       97.610      1.0        1
     180.000       97.374      1.0        1
     180.000       97.137      1.0        1
     180.000       96.899      1.0        1
     180.000       96.662      1.0        1
     180.000       96.424      1.0        1
     180.000       96.186      1.0        1
     180.000       95.948      1.0        1
     180.000       95.709      1.0        1
     180.000       95.471      1.0        1
     180.000       95.232      1.0        1
     180.000       94.993      1.0        1
     180.000       94.754      1.0        1
     180.000       94.515      1.0        1
     180.000       94.275      1.0        1
     180.000       94.036      1.0        1
     180.000       93.796      1.0        1
     180.000       93.556      1.0        1
     180.000       93.316      1.0        1
     180.000       93.076      1.0        1
     180.000       92.836      1.0        1
     180.000       92.596      1.0        1
     180.000       92.356      1.0        1
     180.000       92.115      1.0        1
     180.000       91.875      1.0        1
     180.000       91.635      1.0        1
     180.000       91.394      1.0        1
     180.000       91.154      1.0        1
     180.000       90.913      1.0        1
     180.000       90.672      1.0        1
     180.000       90.432      1.0        1
     180.000       90.191      1.0        1
     180.000       89.951      1.0        1
     180.000       89.710      1.0        1
     180.000       89.470      1.0        1
     180.000       89.229      1.0        1
     180.000       88.989      1.0        1
     180.000       88.748      1.0        1
     180.000       88.508      1.0        1
     180.000       88.267      1.0        1
     180.000       88.027      1.0        1
     180.000       87.787      1.0        1
     180.000       87.547      1.0        1
     180.000       87.307      1.0        1
     180.000       87.067      1.0        1
     180.000       86.827      1.0        1
     180.000       86.588      1.0        1
     180.000       86.348      1.0        1
     180.000       86.109      1.0        1
     180.000       85.870      1.0        1
     180.000       85.631      1.0        1
     180.000       85.392      1.0        1
     180.000       85.153      1.0        1
     180.000       84.915      1.0        1
     180.000       84.676      1.0        1
     180.000       84.438      1.0        1
     180.000       84.200      1.0        1
     180.000       83.962      1.0        1
     180.000       83.725      1.0        1
     180.000       83.488      1.0        1
     180.000       83.251      1.0        1
     180.000       83.014      1.0        1
     180.000       82.777      1.0        1
     180.000       82.541      1.0        1
     180.000       82.305      1.0        1
     180.000       82.070      1.0        1
     180.000       81.834      1.0        1
     180.000       81.599      1.0        1
     180.000       81.364      1.0        1
     180.000       81.130      1.0        1
     180.000       80.896      1.0        1
     180.000       80.662      1.0        1
     180.000       80.428      1.0        1
     180.000       80.195      1.0        1
     180.000       79.962      1.0        1
     180.000       79.730      1.0        1
     180.000       79.498      1.0        1
     180.000       79.266      1.0        1
     180.000       79.035      1.0        1
     180.000       78.804      1.0        1
     180.000       78.574      1.0        1
     180.000       78.344      1.0        1
     180.000       78.114      1.0        1
     180.000       77.885      1.0        1
     180.000       77.656      1.0        1
     180.000       77.428      1.0        1
     180.000       77.200      1.0        1
     180.000       76.972      1.0        1
     180.000       76.745      1.0        1
     180.000       76.519      1.0        1
     180.000       76.293      1.0        1
     180.000       76.068      1.0        1
     180.000       75.843      1.0        1
     180.000       75.618      1.0        1
     180.000       75.394      1.0        1
     180.000       75.171      1.0        1
     180.000       74.948      1.0        1
     180.000       74.726      1.0        1
     180.000       74.504      1.0        1
     180.000       74.282      1.0        1
     180.000       74.062      1.0        1
     180.000       73.842      1.0        1
     180.000       73.622      1.0        1
     180.000       73.403      1.0        1
     180.000       73.185      1.0        1
     180.000       72.967      1.0        1
     180.000       72.750      1.0        1
     180.000       72.533      1.0        1
     180.000       72.318      1.0        1
     180.000       72.102      1.0        1
     180.000       71.888      1.0        1
     180.000       71.674      1.0        1
     180.000       71.460      1.0        1
     180.000       71.248      1.0        1
     180.000       71.036      1.0        1
     180.000       70.824      1.0        1
     180.000       70.614      1.0        1
     180.000       70.404      1.0        1
     180.000       70.195      1.0        1
     180.000       69.986      1.0        1
     180.000       69.778      1.0        1
     180.000       69.571      1.0        1
     180.000       69.365      1.0        1
     180.000       69.159      1.0        1
     180.000       68.955      1.0        1
     180.000       68.750      1.0        1
     180.000       68.547      1.0        1
     180.000       68.344      1.0        1
     180.000       68.143      1.0        1
     180.000       67.942      1.0        1
     180.000       67.741      1.0        1
     180.000       67.542      1.0        1
     180.000       67.343      1.0        1
     180.000       67.145      1.0        1
     180.000       66.948      1.0        1
     180.000       66.752      1.0        1
     180.000       66.557      1.0        1
     180.000       66.362      1.0        1
     180.000       66.169      1.0        1
     180.000       65.976      1.0        1
     180.000       65.784      1.0        1
     180.000       65.593      1.0        1
     180.000       65.402      1.0        1
     180.000       65.213      1.0        1
     180.000       65.025      1.0        1
     180.000       64.837      1.0        1
     180.000       64.650      1.0        1
     180.000       64.464      1.0        1
     180.000       64.280      1.0        1
     180.000       64.096      1.0        1
     180.000       63.913      1.0        1
     180.000       63.730      1.0        1
     180.000       63.549      1.0        1
     180.000       63.369      1.0        1
     180.000       63.190      1.0        1
     180.000       63.011      1.0        1
     180.000       62.834      1.0        1
     180.000       62.658      1.0        1
     180.000       62.482      1.0        1
     180.000       62.308      1.0        1
     180.000       62.134      1.0        1
     180.000       61.962      1.0        1
     180.000       61.790      1.0        1
     180.000       61.620      1.0        1
     180.000       61.450      1.0        1
     180.000       61.282      1.0        1
     180.000       61.115      1.0        1
     180.000       60.948      1.0        1
     180.000       60.783      1.0        1
     180.000       60.618      1.0        1
     180.000       60.455      1.0        1
     180.000       60.293      1.0        1
     180.000       60.132      1.0        1
     180.000       59.972      1.0        1
     180.000       59.813      1.0        1
     180.000       59.655      1.0        1
     180.000       59.498      1.0        1
     180.000       59.342      1.0        1
     180.000       59.187      1.0        1
     180.000       59.034      1.0        1
     180.000       58.881      1.0        1
     180.000       58.730      1.0        1
     180.000       58.580      1.0        1
     180.000       58.431      1.0        1
     180.000       58.282      1.0        1
     180.000       58.136      1.0        1
     180.000       57.990      1.0        1
     180.000       57.845      1.0        1
     180.000       57.702      1.0        1
     180.000       57.559      1.0        1
     180.000       57.418      1.0        1
     180.000       57.278      1.0        1
     180.000       57.139      1.0        1
     180.000       57.002      1.0        1
     180.000       56.865      1.0        1
     180.000       56.730      1.0        1
     180.000       56.596      1.0        1
     180.000       56.463      1.0        1
     180.000       56.331      1.0        1
     180.000       56.200      1.0        1
     180.000       56.071      1.0        1
     180.000       55.943      1.0        1
     180.000       55.816      1.0        1
     180.000       55.690      1.0        1
     180.000       55.566      1.0        1
     180.000       55.442      1.0        1
     180.000       55.320      1.0        1
     180.000       55.200      1.0        1
     180.000       55.080      1.0        1
     180.000       54.962      1.0        1
     180.000       54.844      1.0        1
     180.000       54.729      1.0        1
     180.000       54.614      1.0        1
     180.000       54.501      1.0        1
     180.000       54.389      1.0        1
     180.000       54.278      1.0        1
     180.000       54.168      1.0        1
     180.000       54.060      1.0        1
     180.000       53.953      1.0        1
     180.000       53.847      1.0        1
     180.000       53.743      1.0        1
     180.000       53.640      1.0        1
     180.000       53.538      1.0        1
     180.000       53.438      1.0        1
     180.000       53.338      1.0        1
     180.000       53.240      1.0        1
     180.000       53.144      1.0        1
     180.000       53.049      1.0        1
     180.000       52.955      1.0        1
     180.000       52.862      1.0        1
     180.000       52.771      1.0        1
     180.000       52.681      1.0        1
     180.000       52.592      1.0        1
     180.000       52.505      1.0        1
     180.000       52.418      1.0        1
     180.000       52.334      1.0        1
     180.000       52.250      1.0        1
     180.000       52.168      1.0        1
     180.000       52.088      1.0        1
     180.000       52.008      1.0        1
     180.000       51.931      1.0        1
     180.000       51.854      1.0        1
     180.000       51.779      1.0        1
     180.000       51.705      1.0        1
     180.000       51.632      1.0        1
     180.000       51.561      1.0        1
     180.000       51.491      1.0        1
     180.000       51.423      1.0        1
     180.000       51.356      1.0        1
     180.000       51.290      1.0        1
     180.000       51.226      1.0        1
     180.000       51.163      1.0        1
     180.000       51.101      1.0        1
     180.000       51.041      1.0        1
     180.000       50.982      1.0        1
     180.000       50.925      1.0        1
     180.000       50.869      1.0        1
     180.000       50.815      1.0        1
     180.000       50.761      1.0        1
     180.000       50.709      1.0        1
     180.000       50.659      1.0        1
     180.000       50.610      1.0        1
     180.000       50.562      1.0        1
     180.000       50.516      1.0        1
     180.000       50.471      1.0        1
     180.000       50.428      1.0        1
     180.000       50.386      1.0        1
     180.000       50.346      1.0        1
     180.000       50.306      1.0        1
     180.000       50.269      1.0        1
     180.000       50.232      1.0        1
     180.000       50.197      1.0        1
     180.000       50.164      1.0        1
     180.000       50.132      1.0        1
     180.000       50.101      1.0        1
     180.000       50.072      1.0        1
     180.000       50.044      1.0        1
     180.000       50.018      1.0        1
     180.000       49.993      1.0        1
     180.000       49.969      1.0        1
     180.000       49.947      1.0        1
     180.000       49.926      1.0        1
     180.000       49.907      1.0        1
     180.000       49.889      1.0        1
     180.000       49.873      1.0        1
     180.000       49.858      1.0        1
     180.000       49.844      1.0        1
     180.000       49.832      1.0        1
     180.000       49.821      1.0        1
     180.000       49.812      1.0        1
     180.000       49.804      1.0        1
     180.000       49.797      1.0        1
     180.000       49.792      1.0        1
     180.000       49.789      1.0        1
     180.000       49.787      1.0        1
     180.000       49.786      1.0        1
